495	18

495	103430 516

495	103433 518

495	103436 518

495	103439 520

498	103442 520

498	103445 518

498	103448 516

498	103451 513

498	103454 513

498	103457 512

498	103460 512

498	103463 514

498	6 516

500	103469 516

508	103472 515

508	103475 512

508	103478 508

508	103481 504

508	103484 502

510	103487 503

510	103490 503

513	103493 504

516	103496 505

519	103499 505

522	103502 504

525	103505 502

528	103508 500

531	103511 500

534	103514 497

537	103517 496

540	103520 494

543	103523 495

545	103526 496

548	103529 496

551	103532 497

554	103535 499

557	103538 499

560	103541 496

563	103544 496

566	103547 496

569	103550 499

572	103553 506

575	103556 516

578	103559 532

581	103562 550

583	103565 574

586	103568 604

589	103571 635

592	103574 647

595	103577 625

598	103580 566

601	103583 486

604	103586 404

607	103589 342

610	103592 288

613	103595 236

616	103598 195

619	103601 169

622	103604 168

624	103607 199

627	103610 249

630	103613 303

633	103616 348

636	103619 385

639	103622 413

642	103625 440

645	103628 470

648	103631 496

651	103634 514

654	103637 524

657	103640 528

660	103643 530

663	103646 528

665	103649 527

668	103652 531

672	103655 531

674	103658 531

677	103661 533

680	103664 533

683	103667 535

686	103670 536

689	103673 538

692	103676 540

695	103679 541

698	103682 542

701	103685 542

704	103688 542

706	103691 542

709	103694 542

712	103697 542

715	103700 542

718	103703 543

721	103706 544

724	103709 544

727	103712 544

730	103715 543

733	103718 544

736	103721 544

739	103724 548

742	103727 548

746	103730 552

749	103733 550

749	103736 552

753	103739 554

756	103742 553

759	103745 553

762	103748 552

765	103751 552

768	103754 552

771	103757 552

774	103760 553

778	103763 554

779	103766 552

784	103769 552

787	103772 556

789	103775 552

792	103778 552

795	103781 552

798	103784 550

800	103787 550

803	103790 550

806	103793 548

809	103796 548

812	103799 546

814	103802 544

819	103805 548

822	103808 542

825	103811 542

828	103814 541

830	103817 540

831	103820 540

835	103823 540

838	103826 539

841	103829 540

844	103832 539

847	103835 536

850	103838 535

853	103841 533

856	103844 531

859	103847 528

862	103850 528

865	103853 525

867	103856 524

870	103859 524

873	103862 524

876	103865 522

879	103868 518

882	103871 520

885	103874 519

888	103877 517

891	103880 522

894	103883 515

897	103886 514

900	103889 516

903	103892 515

906	103895 516

908	103898 515

911	103901 515

914	103904 516

917	103907 515

920	103910 516

923	103913 516

926	103916 516

929	103919 512

932	103922 512

935	103925 512

938	103928 512

941	103931 511

944	103934 504

946	103937 510

950	103940 510

953	103943 513

956	103946 511

959	103949 510

962	103952 511

965	103955 511

968	103958 511

971	103961 504

974	103964 508

977	103967 509

980	103970 509

983	103973 509

986	103976 508

989	103979 511

991	103982 508

994	103985 506

997	103988 504

1000	103991 504

1003	103994 504

1006	103997 505

1009	104000 506

1012	104003 506

1013	104006 507

1017	104009 507

1020	104012 506

1023	104015 506

1026	104018 506

1029	104021 506

1031	104024 507

1034	104027 509

1037	104030 508

1040	104033 506

1043	104036 505

1046	104039 505

1049	104042 505

1052	104045 504

1055	104048 504

1058	104051 505

1061	104054 504

1064	104057 504

1067	104060 508

1070	104063 508

1072	104066 510

1075	104069 508

1078	104072 509

1081	104075 509

1084	104078 509

1087	104081 508

1090	104084 510

1093	104087 510

1096	104090 508

1099	104093 505

1102	104096 503

1105	104099 506

1108	104102 502

1111	104105 501

1113	104108 502

1116	104111 500

1119	104114 501

1122	104117 502

1125	104120 500

1128	104123 497

1131	104126 494

1134	104129 492

1137	104132 491

1140	104135 490

1143	104138 491

1146	104141 492

1150	104144 492

1152	104147 494

1155	104150 492

1158	104153 490

1161	104156 487

1164	104159 489

1167	104162 489

1171	104165 489

1173	104168 488

1176	104171 489

1179	104174 491

1180	104177 487

1184	104180 488

1187	104183 488

1190	104186 492

1192	104189 488

1195	104192 488

1198	104195 488

1201	104198 492

1204	104201 500

1207	104204 519

1210	104207 530

1213	104210 548

1216	104213 572

1219	104216 605

1222	104219 631

1225	104222 632

1228	104225 600

1232	104228 533

1234	104231 453

1237	104234 382

1240	104237 324

1243	104240 268

1246	104243 218

1247	104246 182

1251	104249 163

1254	104252 172

1257	104255 210

1260	104258 262

1263	104261 310

1267	104264 352

1270	104267 385

1273	104270 412

1275	104273 437

1278	104276 468

1281	104279 492

1284	104282 507

1287	104285 515

1290	104288 518

1293	104291 518

1296	104294 518

1297	104297 520

1301	104300 521

1304	104303 524

1307	104306 524

1310	104309 525

1313	104312 526

1315	104315 527

1318	104318 528

1321	104321 528

1324	104324 528

1327	104327 526

1330	104330 530

1333	104333 531

1336	104336 532

1339	104339 532

1342	104342 533

1345	104345 533

1348	104348 533

1351	104351 534

1354	104354 534

1356	104357 533

1359	104360 536

1362	104363 536

1366	104366 535

1369	104369 536

1372	104372 535

1375	104375 536

1378	104378 537

1381	104381 541

1384	104384 537

1387	104387 539

1390	104390 540

1393	104393 540

1396	104396 542

1397	104399 542

1400	104402 542

1403	104405 543

1406	104408 542

1409	104411 543

1412	104414 543

1415	104417 544

1418	104420 544

1421	104423 544

1424	104426 544

1427	104429 543

1430	104432 541

1433	104435 541

1436	104438 541

1438	104441 541

1441	104444 539

1444	104447 540

1447	104450 538

1450	104453 540

1453	104456 536

1456	104459 535

1459	104462 534

1462	104465 533

1465	104468 533

1468	104471 532

1471	104474 531

1474	104477 531

1477	104480 532

1479	104483 530

1482	104486 529

1485	104489 528

1488	104492 527

1491	104495 524

1494	104498 524

1497	104501 522

1500	104504 519

1503	104507 519

1506	104510 517

1509	104513 515

1512	104516 513

1516	104519 512

1518	104522 514

1521	104525 514

1524	104528 514

1527	104531 513

1530	104534 513

1533	104537 510

1536	104540 512

1539	104543 512

1542	104546 510

1545	104549 512

1548	104552 512

1551	104555 512

1554	104558 512

1557	104561 510

1559	104564 510

1562	104567 510

1563	104570 511

1567	104573 510

1570	104576 509

1573	104579 510

1576	104582 510

1579	104585 508

1582	104588 510

1585	104591 509

1588	104594 509

1591	104597 507

1594	104600 505

1597	104603 505

1599	104606 504

1602	104609 505

1605	104612 506

1608	104615 507

1611	104618 503

1614	104621 508

1617	104624 504

1620	104627 504

1623	104630 504

1626	104633 502

1629	104636 501

1632	104639 501

1635	104642 501

1638	104645 502

1640	104648 503

1643	104651 502

1646	104654 502

1649	104657 502

1652	104660 502

1655	104663 502

1658	104666 496

1661	104669 500

1664	104672 502

1667	104675 502

1670	104678 501

1673	104681 502

1676	104684 502

1679	104687 503

1681	104690 502

1684	104693 502

1687	104696 503

1690	104699 503

1693	104702 503

1696	104705 504

1699	104708 504

1702	104711 506

1705	104714 506

1708	104717 507

1711	104720 508

1714	104723 509

1717	104726 509

1720	104729 512

1722	104732 511

1725	104735 508

1728	104738 509

1731	104741 508

1734	104744 506

1737	104747 507

1740	104750 504

1743	104753 503

1746	104756 503

1749	104759 504

1752	104762 504

1755	104765 504

1758	104768 504

1761	104771 505

1763	104774 504

1766	104777 502

1769	104780 499

1772	104783 496

1775	104786 494

1778	104789 494

1781	104792 496

1784	104795 497

1787	104798 497

1790	104801 498

1793	104804 496

1796	104807 494

1799	104810 494

1802	104813 491

1804	104816 494

1807	104819 494

1810	104822 494

1813	104825 493

1816	104828 495

1819	104831 496

1822	104834 496

1825	104837 495

1828	104840 497

1831	104843 497

1834	104846 498

1837	104849 498

1840	104852 504

1843	104855 511

1845	104858 523

1848	104861 541

1851	104864 563

1854	104867 589

1857	104870 624

1860	104873 652

1863	104876 654

1866	104879 620

1869	104882 549

1872	104885 461

1875	104888 380

1878	104891 314

1880	104894 255

1884	104897 202

1887	104900 164

1890	104903 145

1893	104906 157

1896	104909 203

1899	104912 262

1902	104915 322

1905	104918 364

1908	104921 399

1911	104924 426

1914	104927 452

1917	104930 481

1920	104933 504

1923	104936 519

1925	104939 526

1928	104942 530

1931	104945 532

1934	104948 531

1937	104951 532

1940	104954 534

1943	104957 535

1946	104960 537

1947	104963 537

1951	104966 539

1954	104969 540

1957	104972 540

1960	104975 543

1963	104978 542

1964	104981 544

1969	104984 544

1972	104987 543

1975	104990 544

1978	104993 546

1981	104996 546

1984	104999 547

1987	105002 548

1990	105005 546

1993	105008 549

1996	105011 550

1999	105014 550

2002	105017 549

2005	105020 549

2007	105023 548

2010	105026 548

2013	105029 549

2016	105032 549

2019	105035 552

2022	105038 550

2025	105041 554

2028	105044 553

2031	105047 553

2034	105050 554

2037	105053 555

2040	105056 557

2043	105059 559

2046	105062 559

2047	105065 557

2050	105068 558

2053	105071 558

2056	105074 558

2059	105077 560

2062	105080 560

2065	105083 559

2068	105086 564

2071	105089 560

2074	105092 560

2077	105095 558

2080	105098 560

2083	105101 557

2086	105104 557

2088	105107 557

2091	105110 559

2094	105113 556

2097	105116 553

2100	105119 554

2103	105122 553

2106	105125 552

2109	105128 549

2112	105131 549

2115	105134 548

2118	105137 546

2121	105140 542

2124	105143 540

2127	105146 538

2129	105149 537

2132	105152 537

2135	105155 534

2138	105158 533

2141	105161 529

2144	105164 528

2147	105167 528

2150	105170 527

2153	105173 527

2156	105176 527

2159	105179 529

2162	105182 525

2165	105185 523

2168	105188 526

2170	105191 525

2173	105194 525

2176	105197 525

2179	105200 524

2183	105203 524

2186	105206 524

2189	105209 521

2192	105212 520

2195	105215 519

2198	105218 516

2201	105221 517

2204	105224 518

2207	105227 517

2209	105230 516

2212	105233 516

2213	105236 516

2217	105239 516

2220	105242 515

2223	105245 514

2226	105248 517

2229	105251 513

2231	105254 514

2236	105257 514

2239	105260 514

2242	105263 514

2245	105266 516

2248	105269 511

2248	105272 511

2252	105275 510

2255	105278 508

2258	105281 509

2261	105284 509

2264	105287 507

2267	105290 508

2270	105293 507

2273	105296 508

2276	105299 506

2279	105302 505

2283	105305 506

2286	105308 509

2289	105311 509

2291	105314 508

2294	105317 508

2297	105320 508

2300	105323 505

2303	105326 505

2306	105329 504

2309	105332 504

2312	105335 506

2313	105338 504

2317	105341 505

2320	105344 504

2323	105347 504

2326	105350 504

2329	105353 502

2331	105356 502

2334	105359 504

2337	105362 501

2340	105365 501

2343	105368 499

2346	105371 498

2349	105374 500

2352	105377 501

2355	105380 504

2358	105383 505

2367	105386 505

2368	105389 506

2368	105392 508

2370	105395 506

2372	105398 506

2375	105401 508

2378	105404 508

2380	105407 510

2385	105410 510

2388	105413 509

2391	105416 504

2394	105419 502

2397	105422 500

2398	105425 501

2402	105428 504

2405	105431 504

2408	105434 506

2411	105437 508

2413	105440 509

2416	105443 509

2419	105446 508

2422	105449 506

2425	105452 504

2428	105455 503

2431	105458 502

2434	105461 504

2437	105464 505

2440	105467 508

2443	105470 508

2446	105473 508

2449	105476 507

2452	105479 506

2454	105482 506

2457	105485 505

2460	105488 505

2463	105491 504

2466	105494 505

2469	105497 505

2472	105500 508

2475	105503 508

2478	105506 509

2481	105509 508

2484	105512 506

2487	105515 505

2490	105518 504

2493	105521 508

2495	105524 516

2499	105527 529

2502	105530 556

2505	105533 564

2508	105536 591

2511	105539 620

2514	105542 648

2517	105545 650

2520	105548 616

2523	105551 548

2526	105554 464

2529	105557 381

2532	105560 317

2534	105563 256

2537	105566 207

2540	105569 172

2543	105572 156

2546	105575 166

2547	105578 210

2551	105581 267

2554	105584 320

2557	105587 362

2560	105590 394

2563	105593 420

2566	105596 448

2569	105599 480

2572	105602 504

2574	105605 518

2577	105608 527

2580	105611 530

2583	105614 532

2586	105617 532

2589	105620 534

2592	105623 535

2595	105626 536

2599	105629 537

2602	105632 538

2605	105635 539

2608	105638 539

2611	105641 540

2614	105644 540

2614	105647 540

2618	105650 538

2621	105653 541

2624	105656 542

2627	105659 543

2630	105662 544

2633	105665 544

2636	105668 546

2639	105671 545

2642	105674 545

2645	105677 544

2649	105680 545

2651	105683 546

2654	105686 545

2656	105689 546

2659	105692 548

2662	105695 545

2664	105698 548

2669	105701 548

2672	105704 550

2675	105707 550

2678	105710 552

2681	105713 552

2682	105716 556

2686	105719 555

2689	105722 555

2692	105725 556

2695	105728 556

2697	105731 556

2700	105734 557

2703	105737 558

2706	105740 558

2709	105743 557

2713	105746 556

2714	105749 557

2719	105752 560

2722	105755 557

2725	105758 557

2728	105761 556

2731	105764 556

2733	105767 556

2736	105770 552

2738	105773 553

2741	105776 551

2744	105779 550

2747	105782 548

2751	105785 548

2754	105788 545

2757	105791 546

2760	105794 545

2763	105797 543

2766	105800 542

2769	105803 541

2772	105806 544

2775	105809 540

2778	105812 538

2780	105815 536

2782	105818 532

2786	105821 529

2789	105824 527

2792	105827 528

2795	105830 528

2798	105833 528

2801	105836 524

2804	105839 523

2807	105842 521

2810	105845 519

2813	105848 519

2814	105851 516

2818	105854 517

2820	105857 521

2823	105860 513

2826	105863 516

2829	105866 516

2831	105869 516

2836	105872 516

2839	105875 514

2842	105878 512

2845	105881 512

2848	105884 512

2851	105887 512

2854	105890 510

2857	105893 510

2859	105896 509

2862	105899 511

2864	105902 510

2867	105905 511

2870	105908 510

2873	105911 511

2876	105914 511

2879	105917 511

2881	105920 511

2886	105923 512

2889	105926 512

2892	105929 510

2895	105932 508

2898	105935 508

2898	105938 508

2902	105941 508

2905	105944 510

2908	105947 508

2911	105950 505

2914	105953 508

2918	105956 508

2921	105959 504

2924	105962 504

2927	105965 504

2930	105968 503

2933	105971 505

2935	105974 505

2939	105977 504

2940	105980 504

2943	105983 504

2947	105986 504

2949	105989 504

2953	105992 506

2956	105995 506

2959	105998 506

2962	106001 505

2965	106004 505

2967	106007 505

2970	106010 506

2973	106013 506

2976	106016 506

2979	106019 511

2981	106022 505

2985	106025 506

2988	106028 505

2991	106031 505

2994	106034 502

2997	106037 504

2998	106040 504

3002	106043 505

3005	106046 506

3008	106049 508

3011	106052 506

3014	106055 508

3018	106058 510

3021	106061 511

3023	106064 513

3026	106067 509

3029	106070 508

3031	106073 510

3034	106076 512

3037	106079 514

3040	106082 516

3043	106085 516

3046	106088 514

3048	106091 510

3052	106094 505

3055	106097 506

3058	106100 510

3062	106103 509

3064	106106 508

3065	106109 509

3069	106112 508

3072	106115 509

3075	106118 507

3078	106121 502

3081	106124 499

3084	106127 498

3087	106130 496

3090	106133 494

3094	106136 496

3097	106139 496

3098	106142 498

3102	106145 498

3104	106148 498

3107	106151 497

3110	106154 497

3113	106157 496

3117	106160 496

3119	106163 496

3122	106166 498

3125	106169 498

3128	106172 498

3131	106175 498

3134	106178 498

3137	106181 497

3140	106184 496

3143	106187 497

3145	106190 496

3147	106193 499

3150	106196 508

3154	106199 520

3157	106202 540

3160	106205 558

3163	106208 583

3167	106211 617

3169	106214 646

3173	106217 652

3175	106220 628

3178	106223 564

3182	106226 481

3182	106229 396

3186	106232 330

3189	106235 269

3192	106238 216

3195	106241 173

3198	106244 150

3202	106247 156

3204	106250 197

3207	106253 254

3210	106256 312

3214	106259 360

3215	106262 396

3219	106265 422

3222	106268 450

3224	106271 478

3227	106274 502

3230	106277 519

3231	106280 528

3236	106283 532

3239	106286 534

3242	106289 536

3245	106292 534

3249	106295 534

3252	106298 535

3255	106301 537

3258	106304 539

3261	106307 539

3264	106310 539

3266	106313 540

3268	106316 542

3271	106319 542

3274	106322 543

3277	106325 542

3281	106328 542

3283	106331 541

3286	106334 543

3289	106337 544

3292	106340 545

3295	106343 545

3298	106346 544

3301	106349 547

3304	106352 545

3306	106355 546

3309	106358 548

3312	106361 548

3315	106364 548

3318	106367 546

3321	106370 547

3324	106373 550

3327	106376 550

3330	106379 553

3333	106382 550

3336	106385 550

3339	106388 552

3342	106391 554

3345	106394 556

3347	106397 556

3350	106400 558

3353	106403 559

3356	106406 558

3359	106409 558

3362	106412 559

3366	106415 560

3369	106418 560

3372	106421 561

3375	106424 558

3378	106427 559

3381	106430 558

3382	106433 558

3386	106436 556

3388	106439 556

3391	106442 555

3394	106445 555

3397	106448 553

3398	106451 553

3403	106454 553

3406	106457 551

3409	106460 550

3412	106463 550

3415	106466 544

3418	106469 544

3421	106472 542

3424	106475 541

3426	106478 539

3429	106481 537

3433	106484 535

3436	106487 532

3439	106490 532

3442	106493 532

3445	106496 532

3448	106499 528

3451	106502 528

3454	106505 529

3456	106508 524

3459	106511 524

3463	106514 521

3466	106517 521

3467	106520 521

3470	106523 521

3474	106526 520

3477	106529 520

3480	106532 519

3481	106535 518

3485	106538 518

3488	106541 517

3491	106544 516

3494	106547 516

3497	106550 515

3500	106553 515

3503	106556 515

3506	106559 515

3508	106562 515

3511	106565 512

3514	106568 514

3517	106571 516

3520	106574 516

3523	106577 515

3526	106580 516

3529	106583 512

3532	106586 511

3535	106589 511

3538	106592 510

3541	106595 510

3544	106598 510

3547	106601 510

3549	106604 513

3552	106607 510

3555	106610 509

3558	106613 508

3561	106616 505

3564	106619 505

3567	106622 504

3570	106625 504

3573	106628 504

3576	106631 504

3579	106634 504

3582	106637 502

3585	106640 504

3588	106643 503

3590	106646 502

3593	106649 502

3596	106652 503

3599	106655 502

3602	106658 502

3605	106661 502

3608	106664 502

3611	106667 503

3614	106670 502

3617	106673 502

3620	106676 502

3623	106679 501

3626	106682 501

3629	106685 502

3631	106688 502

3634	106691 502

3637	106694 502

3640	106697 502

3643	106700 503

3646	106703 502

3649	106706 502

3652	106709 504

3655	106712 505

3658	106715 504

3661	106718 505

3664	106721 506

3667	106724 507

3670	106727 508

3672	106730 509

3675	106733 508

3678	106736 507

3681	106739 505

3684	106742 507

3687	106745 508

3690	106748 511

3693	106751 512

3696	106754 513

3699	106757 512

3702	106760 510

3705	106763 509

3708	106766 509

3710	106769 509

3713	106772 508

3716	106775 509

3719	106778 509

3722	106781 510

3725	106784 509

3728	106787 508

3731	106790 504

3734	106793 500

3737	106796 492

3740	106799 498

3743	106802 498

3746	106805 498

3749	106808 501

3751	106811 501

3754	106814 500

3757	106817 500

3760	106820 500

3763	106823 500

3766	106826 500

3769	106829 500

3772	106832 500

3775	106835 499

3778	106838 500

3781	106841 501

3784	106844 502

3787	106847 504

3790	106850 503

3792	106853 502

3795	106856 502

3798	106859 506

3801	106862 516

3804	106865 528

3807	106868 546

3810	106871 566

3813	106874 590

3816	106877 621

3819	106880 653

3822	106883 660

3825	106886 636

3828	106889 576

3831	106892 492

3833	106895 401

3836	106898 334

3839	106901 274

3842	106904 226

3845	106907 190

3848	106910 168

3851	106913 172

3854	106916 211

3857	106919 264

3860	106922 320

3863	106925 366

3866	106928 401

3869	106931 432

3872	106934 461

3874	106937 490

3877	106940 513

3880	106943 530

3883	106946 540

3886	106949 543

3889	106952 544

3892	106955 548

3895	106958 548

3898	106961 550

3901	106964 552

3904	106967 554

3907	106970 556

3910	106973 556

3913	106976 556

3915	106979 558

3918	106982 557

3921	106985 560

3924	106988 560

3927	106991 562

3930	106994 564

3933	106997 566

3936	107000 568

3939	107003 572

3942	107006 579

3945	107009 580

3948	107012 573

3951	107015 568

3953	107018 568

3956	107021 567

3959	107024 565

3962	107027 565

3965	107030 564

3968	107033 566

3971	107036 567

3974	107039 567

3977	107042 568

3980	107045 569

3983	107048 570

3986	107051 570

3989	107054 570

3992	107057 570

3994	107060 568

3997	107063 569

4000	107066 570

4003	107069 572

4006	107072 573

4009	107075 573

4012	107078 570

4015	107081 574

4018	107084 574

4021	107087 574

4024	107090 574

4027	107093 574

4030	107096 575

4033	107099 574

4035	107102 572

4038	107105 573

4041	107108 571

4044	107111 569

4047	107114 568

4050	107117 567

4053	107120 566

4056	107123 565

4059	107126 562

4062	107129 560

4065	107132 556

4068	107135 556

4071	107138 556

4074	107141 551

4076	107144 555

4079	107147 551

4082	107150 550

4085	107153 551

4088	107156 548

4091	107159 547

4094	107162 544

4097	107165 542

4100	107168 540

4103	107171 539

4106	107174 540

4109	107177 540

4112	107180 541

4115	107183 540

4117	107186 540

4120	107189 538

4123	107192 537

4126	107195 537

4129	107198 536

4131	107201 536

4136	107204 536

4139	107207 536

4142	107210 534

4145	107213 533

4148	107216 532

4150	107219 534

4153	107222 534

4156	107225 534

4158	107228 532

4161	107231 532

4164	107234 532

4167	107237 533

4170	107240 536

4173	107243 535

4176	107246 536

4179	107249 536

4182	107252 537

4185	107255 539

4188	107258 538

4191	107261 538

4194	107264 540

4196	107267 538

4199	107270 537

4202	107273 537

4205	107276 537

4208	107279 538

4211	107282 538

4214	107285 538

4217	107288 537

4220	107291 538

4223	107294 539

4226	107297 541

4229	107300 542

4232	107303 542

4235	107306 540

4237	107309 541

4240	107312 540

4243	107315 542

4246	107318 545

4249	107321 549

4252	107324 554

4255	107327 556

4258	107330 556

4261	107333 558

4264	107336 561

4267	107339 565

4270	107342 567

4273	107345 570

4276	107348 572

4278	107351 571

4281	107354 573

4284	107357 577

4287	107360 570

4290	107363 572

4293	107366 568

4296	107369 568

4297	107372 565

4303	107375 564

4306	107378 562

4308	107381 559

4311	107384 559

4314	107387 560

4317	107390 560

4319	107393 556

4322	107396 556

4325	107399 561

4328	107402 566

4331	107405 570

4334	107408 576

4337	107411 579

4340	107414 578

4343	107417 577

4346	107420 578

4349	107423 583

4352	107426 589

4355	107429 592

4358	107432 592

4360	107435 587

4363	107438 581

4366	107441 580

4369	107444 580

4372	107447 580

4375	107450 580

4378	107453 586

4382	107456 585

4385	107459 588

4388	107462 588

4390	107465 589

4393	107468 587

4397	107471 584

4399	107474 584

4401	107477 582

4405	107480 581

4407	107483 580

4410	107486 580

4414	107489 579

4416	107492 577

4419	107495 572

4422	107498 566

4425	107501 565

4428	107504 564

4431	107507 568

4435	107510 571

4438	107513 574

4440	107516 578

4442	107519 574

4445	107522 564

4449	107525 555

4452	107528 547

4454	107531 542

4457	107534 544

4460	107537 546

4463	107540 555

4466	107543 572

4469	107546 590

4472	107549 611

4475	107552 636

4478	107555 670

4480	107558 697

4483	107561 701

4486	107564 670

4489	107567 602

4492	107570 518

4495	107573 431

4498	107576 362

4501	107579 309

4504	107582 265

4507	107585 241

4510	107588 234

4513	107591 251

4516	107594 296

4519	107597 360

4521	107600 422

4524	107603 485

4527	107606 524

4530	107609 550

4533	107612 566

4536	107615 581

4539	107618 587

4542	107621 590

4545	107624 588

4548	107627 589

4551	107630 592

4554	107633 593

4557	107636 583

4560	107639 571

4578	107642 561

4578	107645 550

4578	107648 543

4578	107651 543

4578	107654 545

4578	107657 552

4581	107660 554

4583	107663 554

4586	107666 552

4589	107669 549

4592	107672 546

4595	107675 544

4598	107678 541

4602	107681 538

4604	107684 537

4606	107687 536

4609	107690 532

4612	107693 524

4615	107696 516

4619	107699 509

4621	107702 506

4624	107705 500

4627	107708 496

4630	107711 491

4633	107714 485

4636	107717 482

4639	107720 478

4642	107723 479

4644	107726 481

4647	107729 482

4650	107732 485

4653	107735 485

4656	107738 485

4659	107741 483

4662	107744 484

4665	107747 486

4668	107750 492

4671	107753 492

4674	107756 485

4677	107759 487

4680	107762 488

4683	107765 484

4685	107768 474

4688	107771 466

4691	107774 462

4694	107777 457

4697	107780 458

4700	107783 463

4703	107786 466

4706	107789 464

4709	107792 457

4712	107795 452

4715	107798 449

4718	107801 444

4721	107804 440

4723	107807 438

4726	107810 433

4729	107813 429

4732	107816 427

4735	107819 428

4738	107822 428

4741	107825 420

4744	107828 414

4747	107831 407

4750	107834 405

4753	107837 403

4756	107840 404

4759	107843 398

4762	107846 398

4764	107849 396

4767	107852 396

4770	107855 394

4773	107858 392

4776	107861 389

4779	107864 389

4782	107867 387

4785	107870 386

4788	107873 388

4791	107876 393

4794	107879 398

4797	107882 404

4800	107885 413

4803	107888 416

4805	107891 412

4808	107894 409

4811	107897 412

4814	107900 414

4817	107903 416

4820	107906 421

4823	107909 423

4826	107912 421

4829	107915 418

4832	107918 415

4835	107921 415

4838	107924 418

4841	107927 421

4844	107930 420

4846	107933 417

4847	107936 412

4852	107939 408

4855	107942 404

4858	107945 406

4861	107948 406

4864	107951 408

4867	107954 412

4871	107957 412

4873	107960 413

4876	107963 412

4879	107966 409

4882	107969 409

4884	107972 407

4887	107975 409

4890	107978 408

4893	107981 409

4896	107984 410

4899	107987 410

4903	107990 412

4905	107993 408

4908	107996 410

4911	107999 409

4914	108002 412

4917	108005 416

4920	108008 420

4923	108011 422

4925	108014 416

4928	108017 416

4931	108020 416

4934	108023 418

4937	108026 417

4940	108029 412

4943	108032 412

4946	108035 412

4949	108038 416

4952	108041 419

4955	108044 420

4958	108047 421

4961	108050 423

4964	108053 424

4966	108056 424

4970	108059 422

4972	108062 421

4975	108065 420

4978	108068 421

4981	108071 420

4984	108074 420

4987	108077 421

4990	108080 422

4993	108083 424

4996	108086 428

4999	108089 428

5002	108092 429

5005	108095 428

5007	108098 429

5010	108101 434

5013	108104 436

5016	108107 441

5019	108110 445

5022	108113 448

5025	108116 447

5028	108119 444

5031	108122 443

5034	108125 445

5038	108128 446

5040	108131 445

5043	108134 448

5046	108137 446

5048	108140 448

5051	108143 446

5054	108146 444

5057	108149 439

5060	108152 436

5063	108155 433

5066	108158 437

5069	108161 441

5072	108164 444

5075	108167 445

5078	108170 447

5081	108173 445

5084	108176 444

5087	108179 444

5089	108182 445

5092	108185 445

5095	108188 443

5098	108191 442

5101	108194 441

5104	108197 444

5107	108200 442

5110	108203 446

5113	108206 444

5116	108209 450

5119	108212 449

5122	108215 452

5125	108218 458

5127	108221 468

5130	108224 485

5132	108227 507

5137	108230 528

5140	108233 555

5142	108236 586

5146	108239 616

5148	108242 620

5151	108245 590

5154	108248 525

5157	108251 434

5160	108254 358

5163	108257 288

5166	108260 228

5168	108263 179

5171	108266 146

5174	108269 129

5177	108272 135

5180	108275 172

5183	108278 228

5186	108281 280

5189	108284 328

5192	108287 364

5195	108290 392

5197	108293 419

5201	108296 448

5205	108299 470

5207	108302 486

5209	108305 494

5212	108308 500

5215	108311 503

5218	108314 505

5222	108317 507

5224	108320 510

5227	108323 514

5230	108326 518

5233	108329 521

5236	108332 523

5239	108335 524

5242	108338 528

5245	108341 526

5248	108344 525

5250	108347 526

5253	108350 528

5256	108353 528

5259	108356 529

5263	108359 532

5264	108362 532

5268	108365 532

5271	108368 533

5274	108371 534

5277	108374 540

5281	108377 544

5283	108380 548

5286	108383 551

5289	108386 552

5291	108389 550

5294	108392 549

5297	108395 541

5300	108398 537

5303	108401 534

5306	108404 533

5309	108407 532

5312	108410 532

5315	108413 534

5318	108416 535

5321	108419 536

5324	108422 536

5327	108425 538

5330	108428 540

5332	108431 542

5335	108434 544

5338	108437 545

5341	108440 547

5344	108443 548

5347	108446 544

5350	108449 543

5353	108452 545

5356	108455 545

5359	108458 540

5362	108461 540

5365	108464 540

5368	108467 540

5370	108470 535

5373	108473 531

5376	108476 529

5379	108479 530

5382	108482 527

5385	108485 528

5388	108488 526

5391	108491 523

5394	108494 524

5397	108497 524

5400	108500 526

5403	108503 529

5406	108506 534

5409	108509 534

5411	108512 534

5414	108515 534

5417	108518 531

5420	108521 532

5423	108524 534

5426	108527 533

5429	108530 532

5432	108533 530

5435	108536 528

5438	108539 526

5441	108542 526

5444	108545 531

5447	108548 530

5450	108551 533

5452	108554 535

5455	108557 540

5458	108560 544

5461	108563 550

5464	108566 548

5467	108569 552

5470	108572 552

5473	108575 552

5476	108578 551

5479	108581 550

5482	108584 547

5485	108587 546

5488	108590 547

5491	108593 544

5493	108596 543

5496	108599 543

5499	108602 542

5502	108605 541

5505	108608 542

5508	108611 543

5511	108614 545

5514	108617 547

5517	108620 545

5520	108623 542

5523	108626 538

5526	108629 538

5529	108632 536

5532	108635 533

5534	108638 530

5537	108641 526

5540	108644 523

5543	108647 520

5546	108650 520

5549	108653 522

5552	108656 522

5555	108659 518

5558	108662 512

5561	108665 508

5564	108668 510

5567	108671 506

5570	108674 506

5572	108677 504

5575	108680 509

5578	108683 514

5581	108686 516

5584	108689 524

5587	108692 527

5590	108695 528

5593	108698 526

5596	108701 528

5599	108704 526

5602	108707 521

5605	108710 520

5608	108713 520

5611	108716 516

5613	108719 512

5615	108722 513

5619	108725 513

5623	108728 513

5625	108731 510

5629	108734 509

5631	108737 507

5634	108740 508

5637	108743 510

5640	108746 515

5643	108749 514

5646	108752 512

5649	108755 512

5652	108758 516

5654	108761 512

5657	108764 509

5660	108767 506

5663	108770 509

5664	108773 508

5669	108776 507

5673	108779 507

5675	108782 507

5678	108785 512

5681	108788 512

5684	108791 514

5687	108794 517

5690	108797 516

5693	108800 510

5695	108803 506

5698	108806 504

5701	108809 506

5704	108812 508

5707	108815 508

5710	108818 504

5713	108821 501

5715	108824 508

5719	108827 504

5723	108830 504

5725	108833 502

5728	108836 500

5731	108839 500

5733	108842 502

5736	108845 502

5739	108848 503

5742	108851 504

5745	108854 508

5748	108857 503

5751	108860 502

5754	108863 500

5757	108866 498

5760	108869 496

5763	108872 497

5766	108875 499

5769	108878 504

5772	108881 506

5775	108884 511

5777	108887 518

5780	108890 529

5781	108893 544

5786	108896 557

5790	108899 576

5792	108902 603

5795	108905 631

5798	108908 639

5801	108911 620

5804	108914 565

5807	108917 492

5810	108920 405

5813	108923 337

5815	108926 286

5818	108929 240

5821	108932 203

5824	108935 182

5827	108938 180

5830	108941 208

5832	108944 253

5836	108947 300

5839	108950 344

5842	108953 382

5845	108956 414

5848	108959 444

5849	108962 478

5854	108965 511

5856	108968 531

5859	108971 531

5862	108974 531

5865	108977 532

5868	108980 539

5871	108983 540

5874	108986 536

5877	108989 539

5880	108992 546

5883	108995 554

5886	108998 557

5889	109001 552

5892	109004 548

5895	109007 548

5897	109010 546

5899	109013 548

5903	109016 549

5907	109019 548

5909	109022 545

5912	109025 543

5915	109028 537

5918	109031 545

5921	109034 548

5924	109037 550

5927	109040 551

5930	109043 552

5933	109046 554

5936	109049 550

5938	109052 548

5941	109055 550

5944	109058 554

5947	109061 551

5950	109064 547

5953	109067 544

5957	109070 541

5959	109073 541

5962	109076 544

5964	109079 546

5968	109082 546

5971	109085 548

5974	109088 548

5977	109091 546

5979	109094 542

5982	109097 542

5985	109100 540

5988	109103 542

5991	109106 541

5994	109109 541

5997	109112 540

6000	109115 541

6003	109118 540

6007	109121 539

6009	109124 537

6012	109127 535

6015	109130 534

6018	109133 534

6020	109136 536

6024	109139 539

6026	109142 538

6029	109145 540

6031	109148 539

6035	109151 539

6038	109154 540

6041	109157 532

6044	109160 542

6047	109163 543

6048	109166 542

6053	109169 542

6056	109172 541

6058	109175 540

6061	109178 542

6064	109181 541

6066	109184 537

6070	109187 540

6074	109190 537

6076	109193 540

6079	109196 546

6082	109199 546

6085	109202 546

6088	109205 546

6091	109208 543

6094	109211 536

6097	109214 535

6111	109217 535

6113	109220 537

6113	109223 536

6113	109226 536

6113	109229 536

6113	109232 536

6117	109235 534

6120	109238 535

6123	109241 534

6126	109244 535

6129	109247 535

6132	109250 532

6135	109253 531

6138	109256 533

6140	109259 534

6143	109262 541

6146	109265 549

6147	109268 552

6152	109271 545

6155	109274 538

6158	109277 534

6161	109280 532

6164	109283 534

6167	109286 536

6170	109289 539

6173	109292 540

6176	109295 542

6179	109298 539

6181	109301 534

6184	109304 533

6187	109307 535

6190	109310 537

6193	109313 536

6196	109316 536

6199	109319 535

6202	109322 534

6205	109325 531

6208	109328 528

6211	109331 531

6214	109334 535

6217	109337 531

6220	109340 527

6222	109343 524

6225	109346 525

6228	109349 525

6231	109352 526

6234	109355 528

6237	109358 527

6240	109361 523

6243	109364 524

6246	109367 527

6249	109370 525

6252	109373 524

6255	109376 525

6258	109379 526

6261	109382 525

6263	109385 520

6266	109388 516

6269	109391 516

6272	109394 516

6275	109397 516

6278	109400 517

6281	109403 517

6284	109406 519

6287	109409 519

6290	109412 524

6293	109415 528

6296	109418 530

6299	109421 526

6301	109424 530

6304	109427 533

6307	109430 534

6310	109433 532

6313	109436 529

6316	109439 530

6319	109442 535

6322	109445 538

6325	109448 534

6328	109451 526

6331	109454 519

6334	109457 516

6337	109460 509

6340	109463 504

6342	109466 500

6345	109469 497

6348	109472 494

6351	109475 496

6354	109478 498

6357	109481 499

6360	109484 500

6363	109487 500

6366	109490 503

6369	109493 498

6372	109496 494

6376	109499 495

6378	109502 498

6381	109505 502

6383	109508 503

6386	109511 501

6389	109514 500

6392	109517 504

6395	109520 499

6398	109523 499

6401	109526 496

6404	109529 490

6409	109532 484

6410	109535 486

6413	109538 494

6416	109541 505

6419	109544 513

6422	109547 526

6424	109550 542

6427	109553 565

6430	109556 593

6433	109559 608

6436	109562 600

6439	109565 572

6442	109568 509

6445	109571 424

6448	109574 350

6451	109577 286

6454	109580 239

6457	109583 196

6460	109586 164

6463	109589 147

6465	109592 168

6466	109595 212

6471	109598 258

6474	109601 307

6477	109604 347

6480	109607 383

6482	109610 412

6486	109613 445

6489	109616 478

6492	109619 500

6495	109622 515

6498	109625 526

6499	109628 532

6504	109631 534

6506	109634 534

6509	109637 533

6512	109640 536

6515	109643 540

6518	109646 542

6521	109649 541

6524	109652 543

6527	109655 546

6530	109658 544

6533	109661 539

6536	109664 536

6539	109667 535

6542	109670 534

6544	109673 538

6547	109676 536

6550	109679 528

6553	109682 524

6556	109685 521

6559	109688 521

6562	109691 522

6565	109694 529

6568	109697 528

6571	109700 527

6574	109703 524

6577	109706 522

6580	109709 526

6583	109712 533

6585	109715 531

6588	109718 527

6591	109721 527

6594	109724 528

6597	109727 530

6598	109730 532

6603	109733 536

6606	109736 537

6610	109739 537

6612	109742 535

6615	109745 533

6618	109748 531

6621	109751 529

6624	109754 530

6626	109757 528

6629	109760 527

6632	109763 524

6635	109766 521

6638	109769 521

6641	109772 520

6644	109775 520

6647	109778 519

6650	109781 519

6653	109784 520

6656	109787 524

6659	109790 526

6662	109793 529

6665	109796 532

6667	109799 537

6670	109802 539

6673	109805 540

6677	109808 544

6679	109811 544

6681	109814 549

6685	109817 554

6688	109820 555

6691	109823 552

6694	109826 550

6697	109829 549

6699	109832 548

6703	109835 548

6706	109838 540

6708	109841 536

6711	109844 532

6714	109847 526

6717	109850 523

6720	109853 520

6723	109856 517

6726	109859 516

6729	109862 513

6732	109865 516

6735	109868 520

6738	109871 526

6741	109874 530

6744	109877 525

6747	109880 516

6748	109883 513

6752	109886 506

6755	109889 505

6758	109892 503

6761	109895 503

6764	109898 503

6767	109901 505

6770	109904 505

6773	109907 505

6776	109910 505

6779	109913 504

6781	109916 504

6785	109919 504

6787	109922 503

6790	109925 505

6793	109928 508

6796	109931 508

6799	109934 508

6802	109937 508

6805	109940 506

6808	109943 506

6811	109946 507

6814	109949 509

6817	109952 511

6820	109955 513

6823	109958 512

6827	109961 511

6828	109964 512

6831	109967 511

6834	109970 509

6837	109973 508

6840	109976 505

6843	109979 501

6846	109982 498

6849	109985 492

6852	109988 492

6855	109991 492

6858	109994 488

6861	109997 488

6864	110000 485

6867	110003 484

6869	110006 485

6872	110009 486

6875	110012 484

6878	110015 486

6881	110018 487

6882	110021 485

6887	110024 485

6890	110027 486

6893	110030 488

6896	110033 492

6899	110036 495

6902	110039 499

6905	110042 502

6908	110045 507

6910	110048 508

6913	110051 514

6916	110054 517

6919	110057 520

6922	110060 520

6925	110063 523

6928	110066 525

6931	110069 528

6934	110072 532

6937	110075 534

6940	110078 535

6943	110081 539

6946	110084 538

6949	110087 534

6951	110090 535

6954	110093 534

6957	110096 533

6960	110099 532

6963	110102 528

6964	110105 528

6969	110108 524

6972	110111 524

6975	110114 524

6978	110117 522

6981	110120 523

6984	110123 524

6987	110126 525

6990	110129 523

6992	110132 520

6995	110135 517

6998	110138 516

6999	110141 515

7004	110144 514

7007	110147 512

7011	110150 514

7013	110153 509

7016	110156 509

7019	110159 508

7022	110162 509

7025	110165 507

7028	110168 506

7031	110171 506

7033	110174 510

7036	110177 514

7039	110180 524

7042	110183 536

7045	110186 552

7048	110189 575

7051	110192 604

7054	110195 637

7057	110198 653

7061	110201 646

7063	110204 606

7066	110207 541

7069	110210 457

7071	110213 374

7074	110216 309

7077	110219 249

7080	110222 200

7083	110225 163

7086	110228 151

7089	110231 174

7092	110234 224

7095	110237 281

7098	110240 330

7101	110243 369

7104	110246 400

7107	110249 428

7110	110252 460

7112	110255 488

7115	110258 505

7118	110261 517

7121	110264 521

7124	110267 521

7127	110270 522

7130	110273 523

7131	110276 524

7136	110279 525

7139	110282 525

7143	110285 527

7145	110288 528

7148	110291 529

7151	110294 530

7153	110297 532

7156	110300 531

7159	110303 532

7162	110306 531

7165	110309 534

7166	110312 537

7171	110315 538

7174	110318 540

7177	110321 543

7180	110324 547

7183	110327 547

7186	110330 547

7189	110333 546

7192	110336 545

7194	110339 546

7197	110342 550

7200	110345 550

7203	110348 552

7206	110351 554

7209	110354 550

7212	110357 546

7215	110360 548

7218	110363 549

7221	110366 550

7224	110369 552

7227	110372 552

7230	110375 550

7233	110378 552

7235	110381 556

7238	110384 557

7241	110387 558

7245	110390 558

7247	110393 559

7250	110396 559

7253	110399 560

7256	110402 558

7259	110405 560

7262	110408 561

7265	110411 559

7268	110414 557

7271	110417 557

7274	110420 555

7276	110423 554

7279	110426 555

7282	110429 558

7285	110432 556

7288	110435 555

7291	110438 556

7294	110441 554

7297	110444 551

7300	110447 551

7303	110450 548

7306	110453 541

7309	110456 534

7312	110459 533

7315	110462 534

7317	110465 538

7320	110468 539

7323	110471 542

7326	110474 544

7329	110477 543

7332	110480 543

7335	110483 543

7338	110486 540

7341	110489 536

7344	110492 534

7347	110495 533

7350	110498 532

7353	110501 528

7355	110504 523

7358	110507 520

7361	110510 518

7364	110513 517

7367	110516 517

7370	110519 516

7373	110522 519

7376	110525 518

7379	110528 520

7382	110531 521

7385	110534 522

7388	110537 524

7391	110540 524

7394	110543 525

7396	110546 526

7399	110549 528

7402	110552 528

7405	110555 528

7408	110558 526

7411	110561 524

7414	110564 522

7417	110567 521

7420	110570 519

7423	110573 520

7426	110576 518

7429	110579 518

7432	110582 515

7435	110585 512

7437	110588 509

7440	110591 506

7443	110594 501

7446	110597 500

7449	110600 500

7452	110603 502

7455	110606 509

7458	110609 511

7461	110612 512

7464	110615 511

7467	110618 512

7470	110621 514

7473	110624 511

7476	110627 508

7478	110630 504

7481	110633 500

7484	110636 497

7487	110639 498

7490	110642 496

7493	110645 495

7496	110648 494

7498	110651 492

7502	110654 492

7505	110657 491

7508	110660 491

7511	110663 492

7514	110666 497

7517	110669 503

7519	110672 505

7522	110675 508

7525	110678 509

7528	110681 509

7531	110684 512

7534	110687 517

7537	110690 520

7540	110693 522

7543	110696 528

7546	110699 529

7548	110702 529

7552	110705 528

7555	110708 532

7558	110711 528

7560	110714 524

7563	110717 521

7566	110720 520

7569	110723 520

7572	110726 518

7575	110729 515

7578	110732 512

7581	110735 511

7584	110738 513

7587	110741 514

7590	110744 516

7593	110747 518

7596	110750 517

7598	110753 516

7599	110756 516

7604	110759 516

7607	110762 515

7610	110765 516

7613	110768 516

7616	110771 516

7619	110774 515

7622	110777 516

7625	110780 512

7628	110783 516

7631	110786 514

7634	110789 512

7637	110792 516

7639	110795 515

7642	110798 513

7645	110801 512

7648	110804 517

7651	110807 528

7654	110810 547

7657	110813 568

7660	110816 597

7663	110819 634

7666	110822 671

7669	110825 685

7672	110828 668

7675	110831 610

7678	110834 531

7680	110837 436

7681	110840 356

7686	110843 289

7689	110846 226

7692	110849 177

7695	110852 145

7698	110855 144

7701	110858 181

7704	110861 242

7707	110864 299

7710	110867 350

7713	110870 390

7715	110873 421

7719	110876 453

7721	110879 485

7724	110882 512

7727	110885 534

7730	110888 543

7732	110891 548

7736	110894 546

7739	110897 547

7742	110900 543

7745	110903 545

7748	110906 547

7751	110909 548

7754	110912 548

7757	110915 544

7760	110918 541

7762	110921 540

7765	110924 545

7768	110927 549

7771	110930 551

7774	110933 546

7777	110936 540

7780	110939 542

7783	110942 547

7786	110945 551

7789	110948 554

7792	110951 554

7795	110954 550

7798	110957 542

7801	110960 540

7803	110963 539

7806	110966 541

7809	110969 543

7812	110972 545

7815	110975 552

7818	110978 559

7821	110981 558

7824	110984 549

7827	110987 540

7830	110990 534

7831	110993 536

7836	110996 540

7839	110999 544

7841	111002 547

7844	111005 553

7847	111008 563

7850	111011 560

7853	111014 546

7856	111017 529

7859	111020 512

7862	111023 502

7865	111026 502

7868	111029 510

7871	111032 520

7874	111035 520

7877	111038 513

7880	111041 501

7882	111044 488

7885	111047 480

7888	111050 473

7891	111053 466

7894	111056 471

7897	111059 464

7899	111062 469

7903	111065 461

7906	111068 454

7909	111071 444

7912	111074 431

7915	111077 416

7918	111080 403

7921	111083 399

7923	111086 395

7926	111089 396

7929	111092 412

7932	111095 423

7935	111098 425

7938	111101 424

7941	111104 406

7944	111107 391

7947	111110 385

7949	111113 391

7953	111116 398

7956	111119 404

7959	111122 408

7962	111125 413

7964	111128 424

7966	111131 441

7970	111134 453

7973	111137 456

7976	111140 466

7979	111143 466

7982	111146 464

7985	111149 465

7988	111152 464

7991	111155 467

7994	111158 474

7997	111161 476

7999	111164 476

8003	111167 479

8005	111170 490

8008	111173 504

8011	111176 510

8014	111179 514

8016	111182 512

8020	111185 504

8023	111188 499

8026	111191 508

8029	111194 522

8032	111197 523

8033	111200 518

8038	111203 519

8041	111206 514

8043	111209 518

8046	111212 528

8049	111215 536

8052	111218 544

8055	111221 549

8058	111224 553

8061	111227 563

8064	111230 569

8066	111233 580

8070	111236 590

8073	111239 598

8076	111242 607

8079	111245 613

8082	111248 619

8083	111251 622

8087	111254 630

8090	111257 640

8093	111260 646

8096	111263 649

8105	111266 651

8107	111269 654

8107	111272 657

8107	111275 676

8111	111278 696

8114	111281 708

8116	111284 710

8120	111287 705

8123	111290 700

8125	111293 697

8128	111296 698

8131	111299 699

8133	111302 693

8137	111305 682

8140	111308 672

8143	111311 665

8146	111314 664

8149	111317 649

8152	111320 627

8155	111323 607

8158	111326 588

8161	111329 572

8164	111332 564

8166	111335 559

8169	111338 550

8172	111341 542

8175	111344 540

8178	111347 540

8181	111350 542

8184	111353 542

8187	111356 548

8190	111359 551

8193	111362 545

8196	111365 546

8198	111368 549

8202	111371 544

8205	111374 538

8207	111377 529

8210	111380 527

8213	111383 528

8216	111386 529

8219	111389 524

8222	111392 515

8225	111395 511

8228	111398 506

8231	111401 500

8234	111404 501

8237	111407 499

8240	111410 494

8243	111413 487

8245	111416 480

8248	111419 484

8251	111422 497

8254	111425 512

8257	111428 522

8260	111431 535

8263	111434 554

8266	111437 580

8269	111440 611

8272	111443 623

8275	111446 606

8278	111449 554

8281	111452 467

8284	111455 376

8286	111458 306

8289	111461 250

8292	111464 200

8295	111467 160

8298	111470 135

8301	111473 137

8304	111476 169

8307	111479 223

8310	111482 274

8313	111485 317

8316	111488 355

8319	111491 386

8322	111494 412

8325	111497 434

8327	111500 462

8330	111503 484

8331	111506 500

8336	111509 508

8339	111512 509

8342	111515 503

8345	111518 500

8348	111521 497

8351	111524 499

8354	111527 498

8357	111530 500

8360	111533 503

8363	111536 507

8365	111539 512

8368	111542 513

8371	111545 518

8374	111548 518

8377	111551 521

8380	111554 522

8383	111557 522

8386	111560 524

8389	111563 526

8392	111566 531

8395	111569 536

8398	111572 540

8401	111575 540

8404	111578 540

8407	111581 542

8409	111584 540

8412	111587 535

8415	111590 530

8418	111593 525

8421	111596 522

8424	111599 520

8427	111602 520

8430	111605 520

8433	111608 520

8436	111611 518

8439	111614 514

8442	111617 512

8445	111620 508

8448	111623 511

8450	111626 514

8453	111629 519

8456	111632 520

8459	111635 520

8462	111638 522

8465	111641 520

8468	111644 518

8471	111647 519

8474	111650 520

8477	111653 522

8480	111656 524

8483	111659 525

8486	111662 524

8489	111665 521

8491	111668 518

8494	111671 511

8497	111674 508

8498	111677 509

8503	111680 507

8506	111683 507

8509	111686 506

8512	111689 504

8515	111692 504

8518	111695 504

8521	111698 505

8524	111701 504

8527	111704 504

8529	111707 502

8532	111710 501

8535	111713 499

8538	111716 494

8541	111719 492

8544	111722 486

8547	111725 482

8550	111728 479

8553	111731 478

8556	111734 478

8559	111737 477

8562	111740 477

8565	111743 476

8568	111746 478

8570	111749 474

8573	111752 475

8576	111755 475

8579	111758 471

8582	111761 472

8585	111764 472

8588	111767 473

8591	111770 473

8594	111773 473

8597	111776 473

8600	111779 472

8603	111782 470

8606	111785 469

8609	111788 468

8611	111791 468

8614	111794 468

8617	111797 470

8620	111800 472

8623	111803 470

8626	111806 473

8629	111809 473

8632	111812 476

8635	111815 477

8638	111818 476

8641	111821 478

8644	111824 476

8647	111827 476

8650	111830 476

8652	111833 477

8655	111836 479

8658	111839 478

8661	111842 479

8664	111845 482

8667	111848 485

8670	111851 484

8673	111854 482

8676	111857 482

8679	111860 480

8682	111863 480

8685	111866 480

8688	111869 479

8691	111872 482

8693	111875 483

8696	111878 482

8699	111881 482

8702	111884 479

8705	111887 477

8708	111890 473

8711	111893 470

8714	111896 469

8717	111899 467

8720	111902 468

8723	111905 468

8726	111908 466

8729	111911 466

8731	111914 464

8734	111917 467

8737	111920 469

8740	111923 471

8743	111926 470

8746	111929 472

8749	111932 472

8752	111935 473

8755	111938 476

8758	111941 480

8761	111944 484

8764	111947 488

8767	111950 493

8770	111953 494

8772	111956 500

8775	111959 503

8778	111962 502

8781	111965 500

8784	111968 498

8787	111971 496

8790	111974 494

8793	111977 495

8796	111980 492

8799	111983 491

8802	111986 491

8805	111989 489

8808	111992 487

8811	111995 486

8813	111998 487

8815	112001 488

8819	112004 488

8822	112007 488

8825	112010 487

8828	112013 486

8831	112016 487

8832	112019 488

8837	112022 487

8840	112025 484

8843	112028 486

8846	112031 485

8849	112034 485

8852	112037 484

8854	112040 484

8857	112043 484

8860	112046 483

8863	112049 485

8866	112052 488

8869	112055 496

8872	112058 508

8875	112061 523

8878	112064 540

8881	112067 561

8885	112070 588

8888	112073 622

8891	112076 644

8894	112079 638

8896	112082 597

8899	112085 528

8900	112088 445

8904	112091 377

8907	112094 314

8910	112097 254

8913	112100 204

8916	112103 170

8920	112106 158

8923	112109 177

8926	112112 225

8929	112115 277

8932	112118 336

8935	112121 380

8937	112124 411

8940	112127 431

8943	112130 453

8946	112133 476

8949	112136 492

8952	112139 506

8955	112142 513

8958	112145 516

8961	112148 519

8964	112151 520

8967	112154 523

8970	112157 523

8973	112160 521

8975	112163 518

8978	112166 517

8981	112169 513

8984	112172 510

8987	112175 512

8990	112178 516

8993	112181 511

8996	112184 506

8999	112187 504

9002	112190 508

9005	112193 511

9008	112196 513

9011	112199 516

9014	112202 521

9016	112205 519

9019	112208 521

9022	112211 527

9025	112214 526

9028	112217 526

9031	112220 524

9034	112223 519

9037	112226 523

9040	112229 524

9043	112232 530

9046	112235 532

9049	112238 533

9052	112241 535

9055	112244 534

9057	112247 534

9060	112250 530

9063	112253 531

9066	112256 536

9069	112259 540

9072	112262 542

9075	112265 537

9078	112268 540

9081	112271 542

9084	112274 541

9087	112277 540

9090	112280 537

9093	112283 537

9096	112286 537

9098	112289 536

9101	112292 534

9104	112295 534

9107	112298 533

9110	112301 532

9113	112304 534

9116	112307 535

9119	112310 534

9122	112313 536

9125	112316 535

9128	112319 535

9131	112322 535

9133	112325 535

9136	112328 535

9138	112331 537

9141	112334 536

9144	112337 536

9148	112340 536

9149	112343 537

9154	112346 537

9157	112349 535

9160	112352 531

9163	112355 530

9166	112358 528

9169	112361 526

9171	112364 526

9174	112367 526

9176	112370 522

9179	112373 522

9182	112376 522

9186	112379 520

9189	112382 522

9192	112385 521

9195	112388 521

9198	112391 519

9201	112394 518

9204	112397 516

9207	112400 516

9210	112403 516

9213	112406 516

9216	112409 516

9218	112412 521

9221	112415 520

9224	112418 520

9227	112421 521

9230	112424 521

9233	112427 522

9236	112430 523

9239	112433 523

9242	112436 523

9245	112439 524

9248	112442 526

9249	112445 526

9253	112448 528

9256	112451 531

9258	112454 533

9261	112457 534

9264	112460 536

9267	112463 538

9270	112466 538

9273	112469 538

9276	112472 538

9279	112475 538

9282	112478 540

9285	112481 540

9288	112484 542

9291	112487 540

9294	112490 541

9297	112493 540

9299	112496 538

9302	112499 536

9305	112502 533

9308	112505 532

9311	112508 533

9314	112511 533

9318	112514 533

9321	112517 533

9324	112520 532

9327	112523 529

9330	112526 526

9333	112529 524

9336	112532 524

9339	112535 524

9341	112538 524

9344	112541 530

9347	112544 524

9350	112547 524

9353	112550 524

9356	112553 524

9359	112556 526

9362	112559 525

9365	112562 527

9366	112565 529

9370	112568 532

9373	112571 535

9376	112574 534

9378	112577 534

9381	112580 534

9384	112583 532

9387	112586 534

9390	112589 532

9393	112592 533

9396	112595 533

9399	112598 533

9402	112601 535

9405	112604 536

9408	112607 538

9411	112610 538

9414	112613 538

9417	112616 536

9419	112619 532

9422	112622 528

9425	112625 525

9428	112628 525

9431	112631 524

9434	112634 521

9437	112637 519

9440	112640 519

9443	112643 517

9446	112646 516

9449	112649 518

9452	112652 520

9455	112655 522

9458	112658 522

9460	112661 521

9463	112664 521

9466	112667 522

9469	112670 523

9472	112673 523

9475	112676 521

9478	112679 524

9481	112682 523

9484	112685 529

9487	112688 531

9490	112691 533

9493	112694 535

9496	112697 536

9499	112700 538

9501	112703 540

9504	112706 541

9507	112709 547

9510	112712 557

9513	112715 572

9516	112718 592

9519	112721 614

9522	112724 644

9525	112727 676

9528	112730 696

9531	112733 690

9534	112736 647

9537	112739 576

9540	112742 497

9542	112745 408

9545	112748 347

9548	112751 289

9551	112754 243

9554	112757 210

9557	112760 197

9560	112763 217

9563	112766 263

9566	112769 320

9569	112772 372

9572	112775 408

9575	112778 439

9578	112781 465

9581	112784 490

9583	112787 512

9586	112790 532

9589	112793 544

9592	112796 551

9595	112799 552

9598	112802 553

9601	112805 551

9604	112808 553

9607	112811 552

9610	112814 556

9613	112817 560

9616	112820 564

9619	112823 567

9621	112826 567

9624	112829 566

9627	112832 565

9630	112835 560

9633	112838 560

9636	112841 561

9639	112844 561

9642	112847 564

9645	112850 564

9648	112853 564

9651	112856 564

9654	112859 564

9657	112862 562

9660	112865 563

9662	112868 564

9665	112871 565

9668	112874 566

9671	112877 566

9674	112880 566

9677	112883 566

9680	112886 566

9683	112889 567

9686	112892 567

9689	112895 568

9692	112898 569

9695	112901 569

9698	112904 569

9701	112907 569

9703	112910 569

9706	112913 567

9709	112916 568

9712	112919 569

9715	112922 569

9718	112925 571

9721	112928 572

9724	112931 572

9727	112934 572

9730	112937 568

9733	112940 566

9736	112943 564

9739	112946 559

9742	112949 559

9744	112952 557

9747	112955 553

9750	112958 553

9753	112961 551

9756	112964 551

9759	112967 544

9762	112970 554

9765	112973 549

9768	112976 549

9771	112979 549

9774	112982 548

9777	112985 547

9780	112988 544

9783	112991 544

9785	112994 544

9788	112997 542

9791	113000 541

9794	113003 540

9797	113006 537

9800	113009 540

9803	113012 536

9806	113015 534

9809	113018 532

9812	113021 530

9815	113024 531

9818	113027 532

9821	113030 531

9824	113033 531

9826	113036 529

9829	113039 528

9832	113042 526

9835	113045 524

9838	113048 518

9841	113051 513

9844	113054 507

9847	113057 502

9850	113060 500

9853	113063 496

9856	113066 492

9859	113069 484

9862	113072 480

9864	113075 479

9867	113078 484

9870	113081 491

9873	113084 493

9876	113087 493

9879	113090 494

9882	113093 498

9885	113096 502

9888	113099 508

9891	113102 510

9894	113105 510

9897	113108 512

9900	113111 513

9903	113114 514

9905	113117 514

9908	113120 512

9911	113123 513

9914	113126 511

9917	113129 514

9920	113132 514

9923	113135 509

9926	113138 506

9929	113141 503

9932	113144 500

9935	113147 503

9938	113150 502

9941	113153 500

9944	113156 500

9946	113159 496

9949	113162 496

9952	113165 494

9955	113168 492

9958	113171 493

9961	113174 490

9964	113177 492

9967	113180 492

9970	113183 493

9973	113186 493

9976	113189 492

9979	113192 492

9982	113195 493

9985	113198 494

9987	113201 496

9990	113204 496

9993	113207 494

9996	113210 495

9999	113213 496

10002	113216 498

10005	113219 498

10008	113222 497

10011	113225 496

10014	113228 493

10017	113231 492

10020	113234 491

10023	113237 490

10026	113240 491

10028	113243 490

10031	113246 492

10034	113249 492

10037	113252 498

10040	113255 502

10043	113258 504

10046	113261 504

10049	113264 502

10052	113267 501

10055	113270 500

10058	113273 500

10061	113276 500

10064	113279 498

10067	113282 499

10069	113285 499

10072	113288 501

10075	113291 500

10078	113294 500

10081	113297 500

10084	113300 501

10087	113303 502

10090	113306 504

10093	113309 501

10096	113312 496

10101	113315 492

10102	113318 487

10105	113321 485

10107	113324 484

10110	113327 485

10113	113330 485

10116	113333 489

10119	113336 490

10122	113339 492

10125	113342 491

10128	113345 489

10131	113348 488

10133	113351 490

10138	113354 490

10141	113357 490

10144	113360 492

10147	113363 492

10149	113366 492

10151	113369 493

10154	113372 493

10157	113375 495

10160	113378 496

10163	113381 499

10166	113384 502

10169	113387 509

10172	113390 518

10175	113393 532

10178	113396 552

10181	113399 581

10184	113402 601

10187	113405 636

10189	113408 662

10192	113411 666

10195	113414 635

10198	113417 572

10201	113420 496

10204	113423 413

10207	113426 354

10210	113429 300

10213	113432 253

10216	113435 214

10219	113438 196

10222	113441 205

10225	113444 247

10228	113447 304

10230	113450 360

10233	113453 400

10236	113456 433

10239	113459 458

10242	113462 481

10245	113465 502

10248	113468 519

10251	113471 536

10254	113474 547

10257	113477 551

10260	113480 550

10263	113483 548

10266	113486 549

10269	113489 549

10271	113492 547

10274	113495 543

10277	113498 543

10280	113501 533

10283	113504 529

10286	113507 527

10289	113510 525

10292	113513 525

10295	113516 524

10298	113519 522

10301	113522 520

10304	113525 520

10307	113528 518

10310	113531 520

10312	113534 524

10315	113537 527

10318	113540 530

10321	113543 532

10324	113546 533

10327	113549 534

10330	113552 535

10333	113555 534

10336	113558 535

10339	113561 534

10342	113564 532

10345	113567 533

10348	113570 534

10351	113573 535

10353	113576 535

10356	113579 533

10359	113582 530

10362	113585 529

10365	113588 528

10368	113591 526

10371	113594 528

10374	113597 528

10377	113600 526

10380	113603 527

10383	113606 527

10386	113609 527

10389	113612 526

10392	113615 527

10394	113618 528

10397	113621 531

10400	113624 533

10403	113627 536

10406	113630 532

10409	113633 538

10412	113636 540

10415	113639 539

10418	113642 538

10421	113645 538

10424	113648 536

10427	113651 534

10430	113654 532

10432	113657 532

10436	113660 532

10438	113663 531

10441	113666 531

10444	113669 528

10447	113672 526

10450	113675 524

10453	113678 519

10456	113681 517

10459	113684 514

10462	113687 511

10465	113690 509

10468	113693 506

10471	113696 504

10473	113699 501

10476	113702 496

10479	113705 493

10482	113708 490

10485	113711 490

10488	113714 487

10491	113717 485

10494	113720 484

10497	113723 480

10500	113726 480

10503	113729 478

10506	113732 477

10509	113735 477

10512	113738 477

10514	113741 477

10517	113744 480

10520	113747 480

10523	113750 482

10526	113753 484

10529	113756 484

10532	113759 485

10535	113762 489

10538	113765 493

10541	113768 496

10544	113771 498

10547	113774 500

10550	113777 502

10553	113780 506

10555	113783 510

10558	113786 510

10561	113789 515

10564	113792 509

10567	113795 512

10570	113798 511

10573	113801 509

10576	113804 511

10579	113807 510

10582	113810 511

10585	113813 511

10588	113816 511

10591	113819 509

10594	113822 510

10596	113825 511

10599	113828 511

10602	113831 510

10605	113834 512

10608	113837 513

10611	113840 511

10614	113843 511

10617	113846 510

10620	113849 512

10623	113852 511

10626	113855 510

10629	113858 512

10632	113861 510

10635	113864 510

10637	113867 508

10640	113870 508

10643	113873 506

10646	113876 505

10649	113879 506

10652	113882 508

10655	113885 505

10658	113888 504

10661	113891 500

10664	113894 499

10667	113897 501

10670	113900 502

10673	113903 500

10675	113906 497

10678	113909 493

10681	113912 494

10684	113915 492

10687	113918 494

10690	113921 496

10693	113924 499

10696	113927 500

10699	113930 501

10702	113933 501

10705	113936 500

10708	113939 498

10711	113942 497

10714	113945 498

10716	113948 500

10719	113951 505

10722	113954 507

10725	113957 508

10728	113960 505

10731	113963 504

10734	113966 504

10737	113969 505

10740	113972 508

10743	113975 508

10746	113978 510

10749	113981 512

10752	113984 512

10755	113987 513

10757	113990 515

10760	113993 516

10763	113996 516

10766	113999 516

10769	114002 518

10772	114005 519

10775	114008 521

10778	114011 519

10781	114014 524

10784	114017 523

10787	114020 523

10790	114023 523

10793	114026 524

10796	114029 525

10798	114032 526

10801	114035 532

10804	114038 541

10807	114041 554

10810	114044 570

10813	114047 592

10816	114050 621

10819	114053 656

10822	114056 684

10825	114059 681

10828	114062 641

10831	114065 566

10834	114068 486

10837	114071 393

10839	114074 335

10842	114077 284

10845	114080 241

10848	114083 210

10851	114086 196

10854	114089 212

10857	114092 257

10860	114095 313

10863	114098 362

10866	114101 402

10869	114104 430

10872	114107 456

10875	114110 481

10878	114113 505

10880	114116 524

10883	114119 536

10886	114122 545

10889	114125 549

10892	114128 551

10895	114131 544

10898	114134 544

10901	114137 545

10904	114140 545

10907	114143 544

10910	114146 544

10913	114149 545

10916	114152 544

10919	114155 545

10921	114158 545

10924	114161 544

10927	114164 543

10930	114167 543

10933	114170 542

10936	114173 541

10939	114176 543

10942	114179 544

10945	114182 544

10948	114185 544

10951	114188 543

10954	114191 542

10957	114194 541

10960	114197 540

10962	114200 539

10965	114203 538

10968	114206 536

10971	114209 536

10974	114212 536

10977	114215 536

10980	114218 538

10983	114221 539

10986	114224 540

10989	114227 540

10992	114230 540

10995	114233 540

10998	114236 537

11001	114239 543

11003	114242 542

11006	114245 544

11009	114248 542

11012	114251 544

11015	114254 543

11018	114257 543

11021	114260 542

11024	114263 541

11027	114266 539

11030	114269 539

11033	114272 540

11036	114275 540

11039	114278 540

11041	114281 536

11044	114284 536

11047	114287 535

11050	114290 533

11053	114293 533

11056	114296 530

11059	114299 529

11062	114302 527

11065	114305 528

11068	114308 530

11071	114311 528

11074	114314 527

11077	114317 525

11080	114320 525

11082	114323 524

11086	114326 523

11089	114329 520

11092	114332 519

11095	114335 517

11098	114338 517

11101	114341 516

11104	114344 517

11107	114347 513

11110	114350 516

11113	114353 516

11116	114356 516

11117	114359 516

11121	114362 517

11123	114365 516

11127	114368 514

11129	114371 513

11132	114374 514

11134	114377 516

11139	114380 517

11142	114383 519

11145	114386 520

11148	114389 524

11151	114392 526

11153	114395 527

11156	114398 527

11160	114401 524

11162	114404 524

11164	114407 522

11167	114410 524

11170	114413 523

11173	114416 528

11176	114419 525

11179	114422 524

11182	114425 524

11185	114428 526

11188	114431 524

11191	114434 523

11194	114437 522

11197	114440 522

11200	114443 522

11203	114446 522

11205	114449 523

11208	114452 520

11211	114455 521

11214	114458 523

11217	114461 520

11220	114464 520

11223	114467 518

11226	114470 518

11229	114473 516

11232	114476 517

11235	114479 516

11238	114482 516

11241	114485 516

11244	114488 515

11246	114491 514

11249	114494 512

11252	114497 513

11255	114500 514

11258	114503 514

11261	114506 512

11264	114509 513

11267	114512 514

11270	114515 513

11273	114518 512

11276	114521 509

11279	114524 508

11282	114527 507

11285	114530 506

11287	114533 504

11290	114536 503

11293	114539 504

11296	114542 502

11299	114545 502

11302	114548 504

11305	114551 502

11308	114554 503

11311	114557 502

11314	114560 501

11317	114563 502

11320	114566 502

11323	114569 501

11326	114572 501

11328	114575 503

11331	114578 505

11334	114581 506

11337	114584 506

11340	114587 502

11344	114590 502

11346	114593 502

11349	114596 506

11352	114599 506

11355	114602 505

11358	114605 506

11361	114608 502

11364	114611 500

11366	114614 500

11369	114617 502

11372	114620 504

11375	114623 503

11378	114626 502

11381	114629 504

11384	114632 505

11387	114635 505

11390	114638 501

11394	114641 498

11396	114644 495

11399	114647 493

11402	114650 493

11405	114653 493

11407	114656 495

11410	114659 496

11413	114662 497

11416	114665 497

11419	114668 495

11422	114671 496

11425	114674 493

11428	114677 494

11431	114680 494

11434	114683 494

11437	114686 496

11440	114689 496

11443	114692 496

11446	114695 495

11448	114698 496

11451	114701 496

11454	114704 496

11457	114707 497

11460	114710 496

11463	114713 501

11466	114716 512

11469	114719 525

11472	114722 544

11475	114725 566

11478	114728 594

11481	114731 630

11484	114734 658

11487	114737 659

11489	114740 611

11492	114743 542

11495	114746 446

11498	114749 362

11501	114752 298

11504	114755 247

11507	114758 202

11510	114761 173

11513	114764 160

11516	114767 175

11519	114770 222

11522	114773 281

11525	114776 334

11528	114779 376

11530	114782 407

11533	114785 436

11536	114788 463

11539	114791 490

11542	114794 509

11545	114797 526

11548	114800 534

11551	114803 540

11554	114806 541

11557	114809 540

11560	114812 542

11563	114815 543

11566	114818 544

11569	114821 545

11571	114824 547

11574	114827 547

11577	114830 547

11580	114833 548

11583	114836 550

11586	114839 550

11589	114842 552

11592	114845 550

11595	114848 551

11598	114851 551

11601	114854 550

11604	114857 552

11607	114860 551

11610	114863 549

11612	114866 548

11615	114869 551

11618	114872 550

11621	114875 552

11624	114878 552

11627	114881 553

11630	114884 554

11633	114887 556

11636	114890 556

11639	114893 558

11642	114896 556

11645	114899 560

11648	114902 557

11651	114905 559

11653	114908 560

11656	114911 559

11659	114914 562

11662	114917 562

11665	114920 563

11668	114923 564

11671	114926 564

11674	114929 565

11677	114932 564

11680	114935 563

11683	114938 564

11686	114941 564

11689	114944 563

11691	114947 562

11694	114950 559

11697	114953 559

11700	114956 558

11703	114959 556

11706	114962 554

11709	114965 553

11712	114968 551

11715	114971 548

11718	114974 548

11721	114977 545

11724	114980 542

11727	114983 541

11730	114986 540

11732	114989 540

11733	114992 538

11738	114995 537

11741	114998 533

11745	115001 532

11748	115004 530

11751	115007 530

11754	115010 528

11757	115013 528

11760	115016 526

11763	115019 524

11766	115022 522

11768	115025 520

11771	115028 520

11773	115031 519

11776	115034 517

11780	115037 515

11783	115040 516

11786	115043 514

11789	115046 514

11792	115049 512

11795	115052 512

11798	115055 511

11800	115058 522

11803	115061 513

11806	115064 513

11809	115067 508

11813	115070 512

11815	115073 512

11818	115076 512

11821	115079 510

11824	115082 509

11827	115085 508

11830	115088 508

11832	115091 509

11835	115094 511

11838	115097 512

11842	115100 511

11844	115103 511

11848	115106 510

11851	115109 510

11854	115112 511

11856	115115 511

11859	115118 510

11862	115121 510

11864	115124 511

11867	115127 511

11870	115130 511

11873	115133 511

11876	115136 517

11880	115139 511

11883	115142 512

11886	115145 508

11889	115148 508

11892	115151 508

11895	115154 508

11897	115157 506

11899	115160 506

11902	115163 505

11905	115166 504

11908	115169 508

11911	115172 505

11915	115175 505

11918	115178 504

11921	115181 504

11924	115184 503

11927	115187 501

11930	115190 500

11933	115193 499

11936	115196 498

11938	115199 497

11941	115202 497

11944	115205 496

11947	115208 496

11949	115211 498

11952	115214 497

11955	115217 497

11958	115220 497

11961	115223 499

11965	115226 500

11968	115229 500

11971	115232 501

11974	115235 500

11976	115238 500

11979	115241 500

11982	115244 500

11983	115247 502

11987	115250 504

11990	115253 508

11993	115256 506

11996	115259 507

11999	115262 508

12002	115265 510

12005	115268 510

12008	115271 510

12011	115274 509

12014	115277 508

12016	115280 508

12019	115283 508

12022	115286 508

12025	115289 503

12028	115292 501

12031	115295 498

12034	115298 499

12037	115301 502

12040	115304 502

12043	115307 500

12046	115310 502

12049	115313 504

12052	115316 504

12055	115319 505

12057	115322 500

12060	115325 496

12063	115328 492

12066	115331 492

12069	115334 492

12072	115337 492

12075	115340 494

12078	115343 492

12081	115346 492

12084	115349 492

12087	115352 491

12090	115355 491

12093	115358 490

12096	115361 490

12098	115364 491

12101	115367 490

12104	115370 490

12107	115373 491

12110	115376 493

12113	115379 493

12116	115382 495

12119	115385 496

12122	115388 492

12125	115391 492

12128	115394 491

12131	115397 496

12133	115400 506

12138	115403 519

12140	115406 540

12143	115409 561

12146	115412 590

12149	115415 625

12151	115418 650

12154	115421 642

12157	115424 593

12160	115427 518

12164	115430 416

12167	115433 338

12170	115436 276

12173	115439 222

12176	115442 181

12179	115445 158

12181	115448 151

12183	115451 170

12186	115454 220

12189	115457 277

12192	115460 330

12195	115463 370

12199	115466 400

12202	115469 427

12205	115472 456

12208	115475 484

12211	115478 505

12213	115481 520

12217	115484 529

12218	115487 532

12221	115490 532

12224	115493 532

12227	115496 533

12231	115499 535

12233	115502 537

12237	115505 540

12240	115508 540

12243	115511 540

12246	115514 541

12249	115517 541

12250	115520 541

12254	115523 543

12257	115526 542

12259	115529 539

12262	115532 541

12265	115535 541

12268	115538 543

12271	115541 544

12274	115544 544

12277	115547 544

12280	115550 545

12283	115553 544

12286	115556 544

12289	115559 544

12292	115562 544

12295	115565 544

12298	115568 544

12300	115571 547

12303	115574 547

12306	115577 547

12309	115580 548

12312	115583 548

12315	115586 549

12318	115589 550

12321	115592 552

12324	115595 553

12327	115598 556

12330	115601 554

12333	115604 554

12336	115607 556

12339	115610 556

12341	115613 557

12344	115616 555

12347	115619 553

12350	115622 552

12353	115625 553

12356	115628 550

12359	115631 549

12362	115634 548

12365	115637 548

12366	115640 548

12371	115643 548

12375	115646 545

12378	115649 545

12380	115652 542

12383	115655 542

12386	115658 541

12389	115661 540

12391	115664 538

12394	115667 536

12398	115670 535

12400	115673 533

12403	115676 532

12407	115679 528

12410	115682 528

12413	115685 526

12415	115688 523

12418	115691 521

12421	115694 524

12424	115697 517

12427	115700 517

12430	115703 517

12433	115706 517

12436	115709 517

12439	115712 517

12441	115715 514

12444	115718 513

12448	115721 512

12450	115724 512

12455	115727 512

12457	115730 512

12462	115733 511

12468	115736 512

12469	115739 513

12469	115742 512

12471	115745 513

12474	115748 514

12476	115751 513

12479	115754 514

12482	115757 516

12485	115760 516

12488	115763 516

12491	115766 514

12494	115769 516

12497	115772 516

12500	115775 514

12502	115778 516

12505	115781 514

12508	115784 513

12511	115787 512

12514	115790 513

12517	115793 516

12520	115796 522

12523	115799 516

12526	115802 514

12529	115805 514

12532	115808 513

12536	115811 513

12539	115814 514

12542	115817 515

12543	115820 514

12546	115823 509

12549	115826 516

12552	115829 515

12555	115832 516

12558	115835 516

12562	115838 515

12564	115841 515

12568	115844 515

12571	115847 513

12574	115850 512

12577	115853 512

12579	115856 512

12583	115859 512

12584	115862 513

12587	115865 513

12590	115868 513

12593	115871 512

12596	115874 513

12599	115877 512

12602	115880 512

12605	115883 512

12608	115886 512

12611	115889 510

12614	115892 511

12616	115895 516

12620	115898 512

12623	115901 511

12625	115904 510

12628	115907 509

12631	115910 509

12635	115913 508

12638	115916 508

12641	115919 508

12644	115922 504

12646	115925 505

12650	115928 503

12652	115931 506

12655	115934 506

12658	115937 506

12661	115940 505

12665	115943 504

12667	115946 505

12669	115949 505

12672	115952 502

12675	115955 502

12678	115958 502

12681	115961 503

12684	115964 499

12687	115967 500

12690	115970 500

12693	115973 501

12696	115976 503

12699	115979 504

12703	115982 506

12706	115985 506

12708	115988 506

12711	115991 504

12714	115994 500

12716	115997 500

12720	116000 501

12723	116003 499

12726	116006 499

12729	116009 499

12732	116012 503

12734	116015 505

12737	116018 506

12740	116021 504

12743	116024 505

12746	116027 506

12748	116030 504

12751	116033 502

12754	116036 501

12757	116039 498

12760	116042 498

12763	116045 496

12766	116048 498

12767	116051 500

12772	116054 501

12775	116057 500

12778	116060 500

12781	116063 501

12785	116066 501

12785	116069 502

12789	116072 504

12792	116075 499

12795	116078 502

12798	116081 502

12801	116084 503

12804	116087 503

12807	116090 503

12810	116093 504

12813	116096 504

12816	116099 505

12817	116102 507

12823	116105 508

12826	116108 513

12828	116111 524

12830	116114 536

12833	116117 557

12835	116120 576

12839	116123 602

12842	116126 635

12845	116129 660

12848	116132 661

12851	116135 620

12854	116138 542

12857	116141 443

12860	116144 360

12863	116147 290

12866	116150 242

12867	116153 193

12872	116156 170

12874	116159 157

12877	116162 174

12880	116165 222

12883	116168 279

12886	116171 333

12890	116174 375

12892	116177 407

12895	116180 435

12899	116183 466

12900	116186 493

12904	116189 514

12907	116192 528

12909	116195 536

12912	116198 540

12916	116201 539

12917	116204 540

12922	116207 540

12925	116210 538

12928	116213 540

12931	116216 542

12934	116219 543

12935	116222 542

12939	116225 545

12942	116228 544

12945	116231 545

12948	116234 545

12950	116237 546

12954	116240 546

12956	116243 548

12959	116246 548

12962	116249 549

12965	116252 548

12968	116255 547

12971	116258 548

12974	116261 548

12977	116264 548

12980	116267 548

12983	116270 549

12987	116273 550

12990	116276 552

12992	116279 550

12994	116282 550

12997	116285 551

13001	116288 550

13003	116291 552

13006	116294 554

13009	116297 556

13012	116300 555

13015	116303 554

13018	116306 556

13021	116309 556

13024	116312 558

13027	116315 558

13029	116318 558

13032	116321 560

13035	116324 560

13038	116327 561

13041	116330 558

13044	116333 558

13047	116336 559

13050	116339 558

13053	116342 560

13056	116345 559

13059	116348 558

13062	116351 558

13065	116354 557

13068	116357 557

13070	116360 557

13073	116363 554

13076	116366 554

13079	116369 552

13082	116372 551

13085	116375 549

13088	116378 547

13091	116381 545

13094	116384 542

13097	116387 541

13100	116390 540

13103	116393 540

13106	116396 538

13109	116399 536

13111	116402 534

13114	116405 532

13117	116408 531

13120	116411 531

13123	116414 528

13126	116417 526

13129	116420 526

13132	116423 527

13135	116426 524

13138	116429 525

13141	116432 523

13144	116435 522

13147	116438 519

13150	116441 519

13152	116444 519

13155	116447 520

13158	116450 520

13161	116453 520

13164	116456 519

13167	116459 520

13170	116462 518

13173	116465 518

13176	116468 517

13179	116471 517

13182	116474 518

13183	116477 516

13188	116480 519

13191	116483 517

13193	116486 515

13196	116489 514

13199	116492 515

13201	116495 517

13205	116498 516

13208	116501 515

13211	116504 515

13214	116507 512

13217	116510 512

13221	116513 512

13223	116516 512

13226	116519 511

13229	116522 510

13232	116525 510

13235	116528 511

13237	116531 512

13240	116534 512

13243	116537 512

13246	116540 512

13249	116543 512

13252	116546 512

13255	116549 512

13258	116552 512

13261	116555 509

13264	116558 509

13267	116561 508

13270	116564 508

13273	116567 508

13275	116570 508

13278	116573 507

13281	116576 505

13284	116579 505

13287	116582 507

13290	116585 504

13293	116588 504

13296	116591 503

13299	116594 505

13302	116597 505

13305	116600 506

13308	116603 504

13311	116606 506

13313	116609 506

13316	116612 508

13319	116615 508

13322	116618 508

13325	116621 506

13328	116624 506

13331	116627 505

13334	116630 506

13337	116633 506

13340	116636 507

13343	116639 504

13346	116642 502

13349	116645 500

13352	116648 499

13354	116651 497

13357	116654 496

13360	116657 496

13363	116660 497

13366	116663 498

13369	116666 498

13372	116669 498

13375	116672 497

13378	116675 498

13381	116678 500

13384	116681 500

13387	116684 497

13390	116687 496

13393	116690 496

13395	116693 496

13398	116696 498

13401	116699 500

13404	116702 502

13407	116705 505

13410	116708 507

13413	116711 507

13416	116714 507

13420	116717 506

13422	116720 505

13425	116723 504

13428	116726 504

13431	116729 505

13435	116732 507

13436	116735 508

13439	116738 508

13442	116741 510

13445	116744 512

13448	116747 516

13452	116750 515

13454	116753 513

13457	116756 510

13460	116759 506

13463	116762 506

13466	116765 508

13469	116768 510

13472	116771 510

13475	116774 510

13477	116777 512

13480	116780 510

13483	116783 509

13486	116786 510

13489	116789 509

13492	116792 508

13495	116795 507

13498	116798 508

13501	116801 508

13504	116804 509

13507	116807 510

13510	116810 510

13513	116813 509

13516	116816 508

13519	116819 509

13521	116822 512

13524	116825 510

13527	116828 517

13530	116831 527

13533	116834 540

13536	116837 561

13539	116840 581

13542	116843 608

13545	116846 640

13548	116849 664

13551	116852 660

13554	116855 620

13557	116858 544

13559	116861 451

13562	116864 370

13565	116867 311

13568	116870 260

13571	116873 220

13574	116876 190

13577	116879 180

13580	116882 198

13583	116885 246

13586	116888 301

13589	116891 351

13592	116894 388

13595	116897 416

13597	116900 438

13600	116903 464

13603	116906 490

13606	116909 512

13609	116912 526

13612	116915 536

13615	116918 536

13619	116921 539

13621	116924 539

13624	116927 538

13627	116930 540

13630	116933 540

13633	116936 543

13636	116939 544

13638	116942 544

13641	116945 544

13644	116948 542

13647	116951 542

13650	116954 543

13653	116957 544

13656	116960 545

13659	116963 544

13662	116966 546

13665	116969 545

13669	116972 545

13671	116975 544

13674	116978 541

13677	116981 539

13679	116984 536

13682	116987 535

13685	116990 534

13688	116993 533

13691	116996 532

13694	116999 532

13697	117002 533

13700	117005 537

13703	117008 536

13706	117011 536

13709	117014 535

13712	117017 537

13715	117020 540

13719	117023 543

13720	117026 544

13723	117029 544

13726	117032 546

13729	117035 545

13732	117038 545

13736	117041 544

13738	117044 544

13741	117047 546

13744	117050 544

13747	117053 544

13750	117056 544

13753	117059 544

13756	117062 544

13759	117065 544

13761	117068 544

13764	117071 543

13767	117074 545

13770	117077 540

13773	117080 540

13776	117083 537

13779	117086 536

13782	117089 537

13786	117092 537

13788	117095 538

13791	117098 540

13794	117101 542

13797	117104 544

13800	117107 544

13803	117110 543

13805	117113 542

13808	117116 540

13811	117119 540

13814	117122 539

13817	117125 540

13820	117128 538

13823	117131 534

13826	117134 531

13829	117137 526

13832	117140 525

13836	117143 524

13838	117146 526

13841	117149 523

13843	117152 520

13846	117155 520

13849	117158 520

13853	117161 518

13855	117164 519

13858	117167 516

13861	117170 517

13864	117173 512

13867	117176 514

13870	117179 513

13873	117182 511

13876	117185 513

13879	117188 512

13881	117191 512

13884	117194 513

13887	117197 514

13890	117200 513

13893	117203 512

13896	117206 512

13899	117209 512

13903	117212 514

13905	117215 514

13908	117218 513

13911	117221 512

13914	117224 512

13917	117227 511

13921	117230 511

13922	117233 512

13925	117236 512

13928	117239 512

13932	117242 512

13934	117245 512

13937	117248 511

13940	117251 512

13943	117254 512

13946	117257 512

13949	117260 513

13952	117263 515

13955	117266 514

13958	117269 514

13961	117272 512

13963	117275 510

13966	117278 509

13970	117281 510

13972	117284 509

13975	117287 503

13978	117290 507

13981	117293 508

13984	117296 508

13988	117299 507

13990	117302 508

13993	117305 506

13996	117308 504

13999	117311 505

14002	117314 504

14004	117317 505

14007	117320 504

14010	117323 502

14013	117326 503

14016	117329 503

14020	117332 504

14022	117335 504

14025	117338 502

14028	117341 501

14031	117344 500

14034	117347 500

14037	117350 503

14040	117353 504

14043	117356 503

14045	117359 503

14048	117362 501

14051	117365 503

14054	117368 503

14057	117371 502

14060	117374 504

14063	117377 501

14066	117380 505

14069	117383 504

14072	117386 506

14075	117389 505

14078	117392 505

14081	117395 506

14084	117398 508

14087	117401 508

14089	117404 507

14092	117407 505

14095	117410 504

14098	117413 505

14101	117416 505

14104	117419 510

14107	117422 510

14110	117425 510

14113	117428 510

14116	117431 507

14119	117434 504

14122	117437 500

14125	117440 501

14127	117443 501

14131	117446 502

14133	117449 504

14136	117452 505

14139	117455 509

14142	117458 512

14145	117461 507

14148	117464 508

14151	117467 508

14154	117470 507

14157	117473 505

14160	117476 503

14163	117479 500

14166	117482 500

14168	117485 500

14171	117488 501

14174	117491 500

14177	117494 501

14180	117497 500

14183	117500 501

14186	117503 502

14189	117506 503

14192	117509 500

14195	117512 502

14198	117515 499

14201	117518 499

14204	117521 499

14207	117524 498

14209	117527 497

14212	117530 497

14215	117533 499

14218	117536 496

14221	117539 496

14224	117542 496

14227	117545 498

14230	117548 504

14233	117551 516

14236	117554 534

14239	117557 554

14242	117560 575

14245	117563 604

14248	117566 636

14250	117569 649

14253	117572 629

14256	117575 572

14259	117578 486

14262	117581 392

14265	117584 321

14268	117587 262

14271	117590 213

14274	117593 177

14277	117596 156

14280	117599 155

14283	117602 183

14286	117605 239

14288	117608 292

14291	117611 340

14294	117614 377

14297	117617 406

14300	117620 432

14303	117623 459

14306	117626 484

14309	117629 503

14312	117632 514

14315	117635 519

14318	117638 523

14321	117641 523

14324	117644 524

14327	117647 523

14329	117650 525

14332	117653 528

14335	117656 528

14338	117659 529

14341	117662 530

14344	117665 528

14347	117668 529

14350	117671 529

14353	117674 530

14356	117677 529

14359	117680 529

14362	117683 531

14365	117686 534

14368	117689 535

14370	117692 537

14373	117695 538

14382	117698 538

14382	117701 540

14383	117704 540

14384	117707 540

14389	117710 542

14391	117713 542

14394	117716 546

14397	117719 544

14400	117722 546

14403	117725 547

14406	117728 547

14409	117731 549

14411	117734 548

14414	117737 550

14417	117740 552

14420	117743 551

14423	117746 553

14426	117749 553

14429	117752 556

14432	117755 556

14434	117758 557

14439	117761 557

14441	117764 557

14444	117767 557

14447	117770 558

14450	117773 558

14452	117776 562

14456	117779 558

14458	117782 558

14461	117785 557

14464	117788 556

14466	117791 557

14469	117794 557

14472	117797 556

14475	117800 553

14478	117803 551

14481	117806 550

14484	117809 550

14487	117812 549

14490	117815 546

14492	117818 544

14495	117821 543

14498	117824 543

14501	117827 540

14504	117830 540

14507	117833 537

14510	117836 535

14513	117839 532

14516	117842 532

14519	117845 531

14522	117848 528

14525	117851 524

14528	117854 525

14531	117857 524

14533	117860 522

14536	117863 521

14539	117866 520

14542	117869 515

14545	117872 518

14548	117875 517

14551	117878 517

14555	117881 517

14557	117884 515

14560	117887 515

14563	117890 513

14566	117893 514

14569	117896 515

14572	117899 514

14574	117902 515

14577	117905 515

14580	117908 512

14583	117911 514

14586	117914 513

14589	117917 514

14592	117920 517

14595	117923 516

14598	117926 515

14601	117929 516

14604	117932 516

14607	117935 516

14610	117938 514

14612	117941 514

14615	117944 515

14618	117947 516

14622	117950 515

14624	117953 515

14627	117956 514

14630	117959 512

14633	117962 515

14636	117965 512

14639	117968 512

14642	117971 512

14645	117974 512

14648	117977 513

14651	117980 513

14653	117983 514

14656	117986 516

14659	117989 512

14662	117992 512

14665	117995 512

14668	117998 512

14671	118001 512

14674	118004 509

14677	118007 508

14680	118010 508

14683	118013 508

14686	118016 509

14689	118019 509

14692	118022 510

14694	118025 509

14697	118028 509

14700	118031 512

14703	118034 513

14706	118037 512

14709	118040 514

14712	118043 512

14715	118046 512

14718	118049 512

14721	118052 513

14724	118055 512

14727	118058 512

14730	118061 512

14733	118064 510

14735	118067 508

14738	118070 509

14741	118073 508

14744	118076 508

14747	118079 508

14750	118082 508

14753	118085 505

14756	118088 504

14759	118091 503

14762	118094 505

14765	118097 505

14768	118100 506

14772	118103 507

14774	118106 507

14776	118109 505

14779	118112 505

14782	118115 505

14785	118118 505

14788	118121 506

14791	118124 504

14794	118127 504

14797	118130 504

14800	118133 501

14803	118136 504

14806	118139 506

14809	118142 507

14812	118145 508

14815	118148 509

14817	118151 508

14820	118154 508

14823	118157 506

14826	118160 504

14829	118163 502

14832	118166 502

14835	118169 504

14838	118172 504

14841	118175 505

14844	118178 507

14847	118181 512

14850	118184 512

14853	118187 513

14855	118190 518

14858	118193 513

14861	118196 510

14864	118199 507

14867	118202 505

14870	118205 503

14873	118208 502

14876	118211 502

14879	118214 495

14882	118217 501

14885	118220 500

14889	118223 499

14891	118226 497

14894	118229 494

14896	118232 490

14899	118235 494

14902	118238 493

14906	118241 496

14908	118244 497

14911	118247 498

14914	118250 499

14917	118253 501

14920	118256 501

14923	118259 503

14926	118262 502

14929	118265 502

14932	118268 499

14935	118271 508

14937	118274 518

14940	118277 532

14943	118280 550

14946	118283 569

14949	118286 596

14952	118289 625

14956	118292 652

14958	118295 655

14961	118298 626

14964	118301 562

14967	118304 476

14970	118307 391

14973	118310 320

14976	118313 260

14978	118316 213

14981	118319 182

14984	118322 169

14987	118325 176

14990	118328 213

14993	118331 265

14996	118334 322

14999	118337 367

15002	118340 404

15005	118343 437

15008	118346 463

15011	118349 490

15014	118352 514

15017	118355 528

15019	118358 539

15022	118361 542

15025	118364 541

15028	118367 542

15031	118370 543

15034	118373 548

15037	118376 547

15040	118379 547

15043	118382 548

15046	118385 549

15049	118388 548

15052	118391 549

15055	118394 550

15058	118397 546

15060	118400 545

15063	118403 546

15066	118406 547

15069	118409 548

15072	118412 546

15075	118415 544

15078	118418 544

15081	118421 544

15084	118424 544

15087	118427 544

15090	118430 544

15093	118433 545

15096	118436 544

15098	118439 546

15101	118442 547

15104	118445 546

15107	118448 546

15110	118451 545

15113	118454 544

15116	118457 544

15117	118460 543

15122	118463 542

15125	118466 537

15128	118469 541

15131	118472 542

15134	118475 544

15137	118478 544

15140	118481 547

15142	118484 545

15145	118487 546

15148	118490 548

15150	118493 549

15154	118496 550

15157	118499 550

15160	118502 551

15163	118505 552

15166	118508 553

15167	118511 554

15172	118514 552

15175	118517 554

15178	118520 555

15180	118523 556

15183	118526 556

15186	118529 558

15190	118532 561

15192	118535 558

15195	118538 558

15198	118541 558

15201	118544 559

15204	118547 558

15207	118550 556

15210	118553 554

15213	118556 552

15216	118559 552

15219	118562 552

15221	118565 551

15224	118568 548

15227	118571 546

15230	118574 546

15233	118577 545

15236	118580 544

15239	118583 545

15242	118586 544

15245	118589 543

15248	118592 542

15251	118595 540

15254	118598 540

15257	118601 538

15260	118604 538

15262	118607 538

15265	118610 538

15268	118613 539

15271	118616 538

15274	118619 536

15277	118622 534

15280	118625 533

15283	118628 532

15286	118631 531

15289	118634 530

15292	118637 529

15295	118640 528

15298	118643 527

15300	118646 528

15303	118649 528

15306	118652 527

15309	118655 526

15312	118658 524

15315	118661 524

15318	118664 523

15321	118667 520

15324	118670 521

15327	118673 518

15330	118676 518

15333	118679 517

15336	118682 514

15339	118685 516

15341	118688 516

15344	118691 512

15347	118694 510

15350	118697 509

15353	118700 505

15356	118703 506

15359	118706 505

15362	118709 504

15365	118712 504

15368	118715 501

15371	118718 502

15374	118721 501

15377	118724 497

15380	118727 499

15382	118730 497

15385	118733 498

15388	118736 497

15391	118739 496

15394	118742 496

15397	118745 497

15400	118748 498

15403	118751 498

15406	118754 496

15409	118757 497

15412	118760 494

15415	118763 493

15418	118766 492

15421	118769 492

15423	118772 491

15426	118775 488

15429	118778 486

15432	118781 484

15435	118784 483

15438	118787 480

15441	118790 480

15444	118793 480

15447	118796 480

15450	118799 482

15453	118802 484

15456	118805 483

15459	118808 483

15462	118811 483

15464	118814 486

15467	118817 488

15470	118820 488

15473	118823 490

15476	118826 492

15479	118829 493

15482	118832 496

15485	118835 500

15488	118838 502

15492	118841 504

15494	118844 508

15497	118847 511

15500	118850 513

15502	118853 516

15505	118856 518

15508	118859 520

15511	118862 522

15514	118865 524

15517	118868 525

15520	118871 525

15523	118874 527

15526	118877 526

15529	118880 525

15532	118883 525

15535	118886 526

15538	118889 529

15541	118892 529

15543	118895 532

15546	118898 532

15549	118901 534

15552	118904 535

15555	118907 535

15558	118910 533

15561	118913 531

15564	118916 528

15567	118919 526

15570	118922 525

15573	118925 524

15576	118928 525

15579	118931 526

15582	118934 526

15584	118937 524

15587	118940 524

15590	118943 522

15593	118946 522

15596	118949 522

15599	118952 524

15602	118955 524

15605	118958 524

15608	118961 522

15611	118964 520

15614	118967 518

15617	118970 518

15620	118973 517

15623	118976 518

15625	118979 519

15628	118982 516

15631	118985 520

15634	118988 528

15637	118991 537

15640	118994 550

15643	118997 568

15646	119000 588

15649	119003 613

15652	119006 643

15655	119009 666

15659	119012 661

15661	119015 622

15664	119018 548

15666	119021 457

15669	119024 372

15672	119027 309

15675	119030 256

15678	119033 217

15681	119036 187

15684	119039 175

15687	119042 191

15690	119045 236

15693	119048 292

15696	119051 343

15699	119054 382

15702	119057 411

15704	119060 436

15707	119063 464

15710	119066 490

15713	119069 512

15716	119072 528

15719	119075 534

15722	119078 539

15726	119081 538

15728	119084 537

15731	119087 534

15734	119090 536

15737	119093 539

15740	119096 541

15743	119099 543

15745	119102 542

15748	119105 543

15751	119108 544

15754	119111 544

15757	119114 544

15760	119117 544

15763	119120 544

15766	119123 546

15769	119126 546

15772	119129 544

15775	119132 544

15778	119135 543

15781	119138 544

15784	119141 547

15786	119144 547

15789	119147 550

15793	119150 551

15795	119153 547

15798	119156 552

15801	119159 552

15804	119162 551

15807	119165 553

15810	119168 556

15813	119171 552

15816	119174 555

15819	119177 556

15822	119180 557

15825	119183 557

15827	119186 558

15830	119189 559

15833	119192 558

15836	119195 560

15839	119198 557

15842	119201 562

15845	119204 561

15848	119207 560

15851	119210 560

15854	119213 561

15857	119216 560

15860	119219 563

15863	119222 561

15866	119225 560

15868	119228 560

15871	119231 558

15874	119234 558

15877	119237 557

15880	119240 555

15883	119243 553

15886	119246 553

15889	119249 552

15892	119252 550

15895	119255 547

15898	119258 546

15901	119261 542

15904	119264 539

15906	119267 538

15910	119270 537

15912	119273 533

15915	119276 531

15918	119279 529

15921	119282 527

15924	119285 524

15927	119288 522

15930	119291 516

15933	119294 515

15936	119297 513

15939	119300 513

15942	119303 512

15945	119306 512

15947	119309 514

15950	119312 516

15953	119315 517

15956	119318 517

15959	119321 516

15962	119324 517

15965	119327 518

15968	119330 519

15971	119333 518

15974	119336 519

15977	119339 518

15980	119342 516

15983	119345 515

15986	119348 515

15988	119351 516

15991	119354 518

15994	119357 518

15997	119360 521

16000	119363 520

16003	119366 520

16006	119369 516

16009	119372 520

16012	119375 516

16015	119378 518

16018	119381 518

16021	119384 516

16024	119387 515

16027	119390 514

16029	119393 512

16032	119396 513

16035	119399 513

16038	119402 510

16041	119405 508

16044	119408 508

16047	119411 504

16050	119414 504

16053	119417 502

16056	119420 502

16060	119423 501

16062	119426 500

16065	119429 504

16068	119432 499

16070	119435 496

16073	119438 494

16076	119441 486

16079	119444 489

16082	119447 490

16085	119450 490

16088	119453 489

16091	119456 489

16094	119459 486

16097	119462 489

16100	119465 488

16103	119468 489

16106	119471 488

16109	119474 487

16111	119477 487

16114	119480 486

16117	119483 486

16120	119486 485

16123	119489 484

16127	119492 482

16130	119495 482

16132	119498 482

16134	119501 483

16138	119504 483

16141	119507 491

16144	119510 483

16147	119513 484

16149	119516 484

16151	119519 483

16155	119522 485

16158	119525 485

16161	119528 485

16164	119531 486

16167	119534 488

16170	119537 489

16173	119540 489

16177	119543 487

16179	119546 487

16182	119549 486

16185	119552 488

16188	119555 489

16190	119558 492

16194	119561 493

16196	119564 494

16199	119567 494

16202	119570 490

16205	119573 487

16208	119576 487

16211	119579 488

16214	119582 488

16217	119585 490

16220	119588 490

16223	119591 492

16226	119594 492

16229	119597 489

16231	119600 486

16234	119603 483

16237	119606 480

16240	119609 480

16244	119612 479

16246	119615 481

16249	119618 482

16252	119621 481

16255	119624 481

16258	119627 478

16261	119630 476

16264	119633 476

16267	119636 477

16270	119639 477

16272	119642 478

16275	119645 480

16278	119648 478

16281	119651 479

16284	119654 478

16287	119657 476

16290	119660 479

16293	119663 480

16296	119666 481

16299	119669 483

16302	119672 490

16305	119675 502

16308	119678 517

16311	119681 538

16313	119684 560

16316	119687 588

16319	119690 620

16322	119693 645

16325	119696 640

16328	119699 608

16331	119702 536

16334	119705 441

16337	119708 359

16340	119711 297

16343	119714 249

16346	119717 212

16349	119720 186

16352	119723 174

16354	119726 187

16357	119729 229

16361	119732 282

16363	119735 334

16366	119738 374

16369	119741 407

16372	119744 432

16375	119747 460

16378	119750 488

16381	119753 512

16384	119756 532

16387	119759 544

16390	119762 550

16392	119765 552

16395	119768 553

16398	119771 552

16400	119774 556

16404	119777 556

16407	119780 555

16410	119783 552

16413	119786 550

16416	119789 551

16419	119792 548

16422	119795 548

16425	119798 546

16428	119801 544

16431	119804 544

16433	119807 544

16436	119810 544

16439	119813 544

16442	119816 544

16445	119819 544

16448	119822 544

16451	119825 544

16454	119828 543

16457	119831 542

16460	119834 540

16463	119837 540

16466	119840 536

16469	119843 535

16472	119846 535

16474	119849 530

16477	119852 529

16480	119855 528

16483	119858 526

16486	119861 527

16489	119864 528

16492	119867 530

16495	119870 532

16498	119873 536

16500	119876 540

16504	119879 538

16507	119882 526

16510	119885 532

16513	119888 535

16515	119891 537

16518	119894 539

16521	119897 538

16524	119900 536

16527	119903 534

16530	119906 533

16533	119909 536

16535	119912 536

16539	119915 536

16542	119918 535

16546	119921 535

16548	119924 535

16551	119927 534

16554	119930 533

16556	119933 530

16559	119936 528

16562	119939 526

16565	119942 525

16568	119945 525

16571	119948 524

16575	119951 520

16576	119954 518

16579	119957 516

16582	119960 518

16585	119963 518

16588	119966 516

16591	119969 516

16595	119972 514

16596	119975 512

16599	119978 511

16602	119981 511

16605	119984 510

16608	119987 510

16612	119990 510

16614	119993 511

16617	119996 512

16620	119999 513

16623	120002 514

16626	120005 514

16629	120008 516

16632	120011 516

16633	120014 516

16637	120017 515

16640	120020 517

16643	120023 516

16646	120026 514

16649	120029 517

16650	120032 518

16655	120035 518

16658	120038 518

16662	120041 518

16664	120044 520

16667	120047 520

16670	120050 522

16673	120053 523

16675	120056 522

16678	120059 520

16681	120062 523

16683	120065 523

16687	120068 523

16690	120071 522

16693	120074 522

16696	120077 521

16699	120080 520

16702	120083 516

16705	120086 518

16708	120089 517

16711	120092 517

16714	120095 523

16716	120098 526

16719	120101 531

16722	120104 530

16725	120107 532

16728	120110 529

16731	120113 526

16732	120116 524

16737	120119 522

16740	120122 517

16743	120125 511

16746	120128 508

16749	120131 505

16753	120134 506

16755	120137 510

16757	120140 511

16760	120143 512

16763	120146 513

16766	120149 511

16769	120152 512

16772	120155 508

16775	120158 504

16778	120161 502

16781	120164 499

16784	120167 496

16787	120170 492

16790	120173 488

16793	120176 484

16796	120179 481

16798	120182 481

16801	120185 480

16804	120188 480

16807	120191 480

16810	120194 481

16813	120197 479

16816	120200 478

16819	120203 478

16822	120206 478

16825	120209 477

16828	120212 477

16831	120215 476

16832	120218 477

16837	120221 477

16839	120224 477

16842	120227 478

16845	120230 480

16848	120233 483

16851	120236 485

16854	120239 486

16857	120242 487

16860	120245 488

16863	120248 489

16866	120251 492

16869	120254 494

16872	120257 494

16875	120260 498

16878	120263 500

16880	120266 499

16883	120269 498

16886	120272 499

16889	120275 502

16892	120278 506

16895	120281 507

16898	120284 505

16901	120287 503

16904	120290 502

16907	120293 500

16910	120296 494

16913	120299 493

16916	120302 492

16918	120305 490

16921	120308 491

16924	120311 490

16927	120314 496

16930	120317 500

16933	120320 501

16936	120323 498

16939	120326 493

16942	120329 491

16945	120332 490

16948	120335 491

16951	120338 492

16954	120341 494

16957	120344 498

16959	120347 499

16962	120350 500

16965	120353 500

16968	120356 502

16971	120359 505

16974	120362 506

16977	120365 504

16980	120368 504

16983	120371 510

16986	120374 520

16989	120377 532

16992	120380 547

16995	120383 563

16998	120386 590

17000	120389 624

17003	120392 645

17006	120395 640

17009	120398 601

17012	120401 530

17015	120404 439

17018	120407 362

17021	120410 296

17024	120413 242

17027	120416 204

17030	120419 181

17033	120422 173

17036	120425 186

17039	120428 231

17041	120431 287

17044	120434 333

17047	120437 370

17050	120440 400

17053	120443 426

17056	120446 453

17059	120449 484

17062	120452 511

17065	120455 525

17068	120458 528

17071	120461 525

17074	120464 529

17077	120467 536

17080	120470 540

17082	120473 543

17085	120476 543

17088	120479 547

17091	120482 544

17094	120485 542

17097	120488 542

17100	120491 544

17103	120494 546

17106	120497 548

17109	120500 549

17112	120503 552

17115	120506 551

17118	120509 559

17120	120512 566

17123	120515 562

17126	120518 558

17129	120521 552

17132	120524 550

17135	120527 552

17138	120530 550

17141	120533 557

17144	120536 570

17147	120539 572

17150	120542 559

17153	120545 550

17156	120548 548

17159	120551 548

17161	120554 549

17164	120557 553

17167	120560 557

17170	120563 560

17173	120566 562

17176	120569 560

17179	120572 562

17182	120575 564

17185	120578 566

17188	120581 570

17191	120584 572

17194	120587 573

17197	120590 574

17200	120593 576

17202	120596 577

17205	120599 580

17208	120602 581

17211	120605 581

17214	120608 578

17217	120611 574

17220	120614 570

17223	120617 567

17226	120620 568

17229	120623 569

17232	120626 568

17235	120629 564

17238	120632 561

17241	120635 557

17243	120638 553

17246	120641 550

17249	120644 548

17252	120647 548

17255	120650 547

17258	120653 544

17261	120656 547

17264	120659 548

17267	120662 547

17270	120665 541

17273	120668 536

17276	120671 532

17279	120674 528

17281	120677 526

17282	120680 527

17287	120683 524

17290	120686 521

17293	120689 518

17296	120692 513

17299	120695 511

17302	120698 508

17305	120701 508

17308	120704 504

17311	120707 503

17314	120710 504

17317	120713 502

17320	120716 502

17322	120719 501

17325	120722 499

17328	120725 496

17331	120728 492

17334	120731 487

17337	120734 482

17340	120737 479

17343	120740 476

17347	120743 475

17349	120746 476

17352	120749 476

17355	120752 476

17358	120755 473

17361	120758 473

17363	120761 473

17366	120764 475

17369	120767 477

17372	120770 478

17375	120773 478

17378	120776 483

17381	120779 485

17384	120782 487

17387	120785 489

17390	120788 491

17393	120791 489

17396	120794 491

17399	120797 490

17402	120800 492

17404	120803 493

17407	120806 493

17410	120809 493

17414	120812 492

17416	120815 493

17419	120818 493

17422	120821 494

17425	120824 495

17428	120827 496

17431	120830 495

17433	120833 496

17437	120836 497

17440	120839 496

17443	120842 496

17445	120845 494

17448	120848 494

17451	120851 494

17454	120854 496

17457	120857 497

17460	120860 498

17463	120863 498

17466	120866 500

17469	120869 497

17472	120872 500

17475	120875 499

17478	120878 499

17481	120881 499

17483	120884 499

17486	120887 501

17489	120890 498

17492	120893 499

17495	120896 500

17498	120899 504

17500	120902 500

17504	120905 500

17507	120908 498

17510	120911 496

17513	120914 494

17516	120917 496

17517	120920 504

17522	120923 501

17524	120926 504

17527	120929 505

17530	120932 505

17533	120935 504

17536	120938 503

17539	120941 502

17542	120944 505

17545	120947 508

17548	120950 514

17551	120953 516

17554	120956 515

17557	120959 512

17560	120962 511

17563	120965 510

17565	120968 510

17568	120971 513

17571	120974 513

17574	120977 513

17577	120980 516

17580	120983 519

17583	120986 518

17586	120989 518

17589	120992 510

17592	120995 508

17595	120998 509

17598	121001 511

17599	121004 513

17604	121007 518

17606	121010 514

17609	121013 514

17612	121016 516

17615	121019 515

17618	121022 514

17621	121025 514

17624	121028 512

17627	121031 511

17630	121034 511

17633	121037 513

17636	121040 513

17639	121043 513

17642	121046 514

17645	121049 513

17647	121052 512

17650	121055 511

17653	121058 512

17656	121061 516

17659	121064 520

17662	121067 534

17665	121070 553

17666	121073 572

17671	121076 594

17674	121079 625

17677	121082 649

17680	121085 649

17683	121088 619

17686	121091 559

17688	121094 484

17691	121097 402

17694	121100 341

17697	121103 286

17700	121106 240

17703	121109 205

17706	121112 186

17709	121115 192

17712	121118 228

17715	121121 279

17718	121124 329

17721	121127 372

17724	121130 403

17727	121133 429

17729	121136 458

17732	121139 485

17736	121142 518

17739	121145 520

17742	121148 533

17745	121151 536

17748	121154 539

17751	121157 541

17754	121160 536

17757	121163 538

17760	121166 538

17763	121169 538

17766	121172 540

17767	121175 541

17770	121178 543

17773	121181 544

17776	121184 544

17779	121187 543

17782	121190 544

17784	121193 543

17789	121196 543

17792	121199 545

17795	121202 544

17798	121205 544

17801	121208 545

17802	121211 546

17806	121214 546

17808	121217 546

17811	121220 547

17814	121223 547

17817	121226 548

17820	121229 550

17823	121232 548

17826	121235 549

17829	121238 550

17832	121241 553

17835	121244 552

17838	121247 555

17841	121250 556

17844	121253 558

17847	121256 558

17849	121259 558

17853	121262 558

17856	121265 558

17859	121268 561

17862	121271 560

17865	121274 559

17868	121277 558

17871	121280 560

17874	121283 557

17877	121286 560

17880	121289 558

17883	121292 557

17884	121295 557

17888	121298 557

17890	121301 557

17893	121304 556

17896	121307 556

17899	121310 555

17901	121313 554

17906	121316 553

17909	121319 551

17912	121322 550

17915	121325 550

17918	121328 552

17921	121331 547

17924	121334 543

17927	121337 544

17930	121340 545

17932	121343 544

17935	121346 543

17938	121349 541

17941	121352 538

17944	121355 536

17947	121358 535

17950	121361 534

17953	121364 533

17956	121367 532

17959	121370 529

17962	121373 527

17965	121376 527

17968	121379 525

17971	121382 523

17973	121385 522

17976	121388 520

17979	121391 521

17982	121394 520

17985	121397 520

17988	121400 520

17991	121403 516

17994	121406 517

17997	121409 517

18000	121412 518

18003	121415 517

18006	121418 517

18009	121421 516

18012	121424 514

18014	121427 514

18017	121430 514

18020	121433 513

18023	121436 514

18026	121439 513

18029	121442 513

18032	121445 514

18035	121448 515

18038	121451 517

18041	121454 515

18044	121457 515

18047	121460 516

18050	121463 516

18052	121466 516

18055	121469 513

18058	121472 513

18061	121475 513

18064	121478 514

18067	121481 513

18070	121484 512

18073	121487 512

18076	121490 511

18079	121493 510

18082	121496 511

18085	121499 512

18088	121502 512

18091	121505 512

18093	121508 511

18096	121511 512

18099	121514 510

18102	121517 510

18105	121520 509

18108	121523 509

18111	121526 508

18114	121529 509

18117	121532 508

18120	121535 510

18123	121538 508

18126	121541 508

18129	121544 508

18132	121547 508

18134	121550 508

18137	121553 509

18140	121556 509

18143	121559 508

18146	121562 508

18149	121565 510

18150	121568 509

18154	121571 508

18157	121574 506

18160	121577 505

18163	121580 503

18166	121583 506

18169	121586 507

18172	121589 507

18174	121592 508

18177	121595 506

18180	121598 506

18183	121601 507

18186	121604 508

18189	121607 509

18192	121610 512

18195	121613 514

18198	121616 515

18201	121619 515

18204	121622 514

18207	121625 513

18210	121628 514

18212	121631 516

18215	121634 521

18218	121637 523

18221	121640 522

18224	121643 522

18227	121646 521

18230	121649 519

18233	121652 517

18236	121655 516

18239	121658 516

18242	121661 515

18245	121664 517

18248	121667 516

18251	121670 514

18253	121673 510

18256	121676 508

18259	121679 505

18262	121682 508

18265	121685 505

18268	121688 506

18271	121691 507

18274	121694 506

18277	121697 504

18280	121700 504

18283	121703 505

18286	121706 504

18289	121709 502

18292	121712 503

18294	121715 504

18297	121718 502

18300	121721 503

18303	121724 504

18306	121727 503

18309	121730 504

18312	121733 504

18315	121736 504

18318	121739 503

18321	121742 504

18324	121745 506

18327	121748 514

18330	121751 525

18333	121754 547

18335	121757 567

18338	121760 592

18341	121763 624

18344	121766 646

18347	121769 643

18350	121772 607

18353	121775 537

18356	121778 449

18359	121781 367

18362	121784 301

18365	121787 245

18368	121790 202

18371	121793 174

18374	121796 160

18376	121799 173

18379	121802 219

18382	121805 274

18385	121808 327

18388	121811 368

18391	121814 400

18394	121817 426

18397	121820 452

18400	121823 480

18403	121826 504

18406	121829 520

18409	121832 529

18412	121835 525

18415	121838 532

18417	121841 534

18420	121844 537

18423	121847 537

18426	121850 541

18429	121853 540

18432	121856 542

18435	121859 543

18438	121862 542

18441	121865 539

18444	121868 542

18447	121871 544

18450	121874 544

18453	121877 545

18456	121880 546

18458	121883 546

18461	121886 546

18464	121889 548

18467	121892 552

18470	121895 551

18473	121898 550

18476	121901 550

18479	121904 552

18482	121907 551

18485	121910 552

18488	121913 553

18491	121916 556

18493	121919 554

18495	121922 555

18498	121925 556

18500	121928 557

18505	121931 556

18508	121934 557

18511	121937 557

18514	121940 557

18517	121943 559

18520	121946 560

18523	121949 560

18526	121952 562

18529	121955 562

18532	121958 564

18535	121961 563

18537	121964 562

18540	121967 562

18543	121970 560

18546	121973 562

18549	121976 562

18552	121979 563

18555	121982 561

18558	121985 561

18561	121988 560

18564	121991 560

18567	121994 560

18570	121997 560

18573	122000 559

18576	122003 557

18578	122006 556

18581	122009 555

18584	122012 554

18587	122015 552

18590	122018 551

18593	122021 548

18596	122024 547

18599	122027 545

18602	122030 544

18605	122033 541

18608	122036 536

18611	122039 534

18614	122042 533

18617	122045 532

18619	122048 532

18622	122051 529

18625	122054 529

18628	122057 528

18631	122060 528

18634	122063 527

18637	122066 526

18640	122069 524

18643	122072 523

18646	122075 523

18649	122078 524

18652	122081 518

18655	122084 522

18658	122087 522

18660	122090 521

18663	122093 520

18666	122096 520

18669	122099 520

18672	122102 521

18675	122105 518

18678	122108 519

18681	122111 519

18684	122114 518

18687	122117 519

18690	122120 518

18693	122123 518

18696	122126 516

18698	122129 516

18701	122132 517

18704	122135 517

18707	122138 516

18710	122141 517

18713	122144 517

18716	122147 517

18719	122150 517

18722	122153 516

18725	122156 518

18728	122159 516

18731	122162 515

18734	122165 514

18737	122168 517

18739	122171 512

18742	122174 513

18745	122177 512

18748	122180 512

18751	122183 512

18754	122186 510

18757	122189 510

18760	122192 510

18763	122195 510

18766	122198 511

18769	122201 512

18772	122204 512

18775	122207 511

18778	122210 513

18780	122213 513

18783	122216 513

18786	122219 511

18789	122222 512

18792	122225 511

18795	122228 511

18798	122231 510

18801	122234 512

18804	122237 513

18807	122240 514

18810	122243 514

18813	122246 514

18816	122249 516

18819	122252 515

18821	122255 515

18824	122258 513

18827	122261 511

18830	122264 511

18833	122267 513

18836	122270 516

18839	122273 517

18842	122276 516

18845	122279 516

18848	122282 514

18851	122285 514

18854	122288 513

18857	122291 515

18860	122294 516

18862	122297 518

18865	122300 519

18868	122303 522

18871	122306 516

18874	122309 515

18877	122312 510

18880	122315 509

18883	122318 508

18886	122321 507

18889	122324 509

18892	122327 510

18895	122330 508

18898	122333 504

18900	122336 500

18903	122339 498

18906	122342 496

18909	122345 494

18912	122348 496

18915	122351 497

18918	122354 500

18921	122357 498

18924	122360 497

18927	122363 494

18930	122366 493

18933	122369 493

18936	122372 494

18939	122375 494

18941	122378 494

18944	122381 493

18947	122384 494

18950	122387 494

18953	122390 495

18956	122393 495

18959	122396 495

18962	122399 494

18965	122402 495

18968	122405 496

18971	122408 500

18974	122411 509

18977	122414 525

18980	122417 544

18982	122420 565

18985	122423 590

18988	122426 622

18991	122429 640

18994	122432 632

18997	122435 592

19000	122438 524

19003	122441 437

19006	122444 364

19009	122447 306

19012	122450 255

19015	122453 210

19018	122456 180

19021	122459 168

19023	122462 185

19026	122465 229

19029	122468 287

19032	122471 338

19035	122474 378

19038	122477 408

19041	122480 433

19044	122483 461

19047	122486 488

19050	122489 512

19053	122492 527

19056	122495 536

19059	122498 540

19062	122501 540

19064	122504 541

19067	122507 544

19070	122510 543

19073	122513 546

19076	122516 546

19079	122519 548

19082	122522 551

19085	122525 550

19088	122528 552

19091	122531 552

19094	122534 552

19097	122537 552

19100	122540 556

19103	122543 555

19105	122546 556

19108	122549 553

19111	122552 557

19114	122555 559

19117	122558 560

19120	122561 560

19123	122564 559

19126	122567 558

19129	122570 557

19132	122573 556

19133	122576 555

19137	122579 557

19140	122582 554

19142	122585 556

19145	122588 556

19148	122591 555

19150	122594 556

19155	122597 556

19158	122600 557

19161	122603 556

19164	122606 554

19167	122609 553

19170	122612 552

19173	122615 551

19176	122618 551

19179	122621 551

19182	122624 552

19183	122627 552

19186	122630 550

19189	122633 550

19192	122636 548

19195	122639 544

19198	122642 546

19201	122645 544

19204	122648 542

19207	122651 541

19210	122654 542

19213	122657 539

19216	122660 537

19219	122663 537

19222	122666 536

19224	122669 533

19227	122672 532

19230	122675 528

19233	122678 526

19236	122681 524

19239	122684 520

19242	122687 518

19245	122690 516

19248	122693 514

19251	122696 512

19254	122699 508

19257	122702 506

19260	122705 504

19263	122708 501

19265	122711 500

19268	122714 502

19271	122717 500

19274	122720 499

19277	122723 500

19280	122726 497

19283	122729 496

19286	122732 496

19289	122735 494

19292	122738 493

19295	122741 493

19298	122744 488

19301	122747 492

19304	122750 492

19306	122753 492

19309	122756 489

19312	122759 492

19315	122762 491

19318	122765 492

19321	122768 493

19324	122771 493

19327	122774 493

19330	122777 496

19333	122780 496

19336	122783 497

19339	122786 498

19342	122789 497

19344	122792 499

19347	122795 500

19349	122798 503

19354	122801 501

19357	122804 503

19360	122807 503

19363	122810 506

19366	122813 507

19369	122816 510

19372	122819 510

19375	122822 510

19378	122825 511

19381	122828 514

19384	122831 517

19386	122834 518

19389	122837 520

19392	122840 520

19395	122843 520

19398	122846 520

19401	122849 522

19404	122852 524

19407	122855 523

19410	122858 524

19413	122861 524

19416	122864 524

19419	122867 524

19422	122870 524

19425	122873 524

19427	122876 520

19430	122879 520

19433	122882 520

19436	122885 519

19439	122888 520

19442	122891 519

19445	122894 517

19448	122897 516

19451	122900 515

19454	122903 515

19457	122906 513

19460	122909 512

19463	122912 512

19466	122915 514

19468	122918 512

19471	122921 514

19474	122924 515

19477	122927 513

19480	122930 516

19483	122933 516

19486	122936 513

19489	122939 509

19492	122942 504

19495	122945 508

19498	122948 507

19501	122951 509

19504	122954 514

19507	122957 511

19509	122960 511

19512	122963 510

19515	122966 508

19518	122969 504

19521	122972 500

19524	122975 498

19527	122978 497

19530	122981 496

19533	122984 494

19536	122987 490

19539	122990 489

19542	122993 481

19545	122996 479

19547	122999 478

19550	123002 478

19553	123005 479

19556	123008 477

19559	123011 476

19562	123014 474

19565	123017 470

19568	123020 469

19571	123023 467

19574	123026 468

19577	123029 469

19580	123032 470

19583	123035 471

19586	123038 470

19588	123041 470

19591	123044 471

19594	123047 471

19597	123050 472

19600	123053 474

19603	123056 476

19606	123059 478

19609	123062 485

19612	123065 496

19615	123068 512

19618	123071 533

19621	123074 556

19624	123077 587

19627	123080 620

19629	123083 638

19632	123086 626

19635	123089 578

19638	123092 503

19641	123095 413

19644	123098 341

19647	123101 281

19650	123104 234

19653	123107 194

19656	123110 171

19659	123113 166

19662	123116 192

19665	123119 245

19668	123122 301

19670	123125 348

19673	123128 387

19676	123131 416

19679	123134 444

19682	123137 474

19685	123140 500

19688	123143 520

19691	123146 532

19694	123149 540

19697	123152 544

19700	123155 546

19703	123158 548

19706	123161 550

19709	123164 550

19711	123167 552

19714	123170 551

19717	123173 556

19720	123176 556

19723	123179 555

19726	123182 557

19729	123185 555

19732	123188 557

19735	123191 558

19738	123194 558

19741	123197 558

19744	123200 559

19747	123203 558

19750	123206 560

19752	123209 558

19755	123212 558

19758	123215 557

19761	123218 558

19764	123221 554

19767	123224 554

19770	123227 556

19773	123230 557

19776	123233 559

19779	123236 559

19782	123239 558

19785	123242 556

19788	123245 556

19791	123248 556

19793	123251 555

19796	123254 556

19799	123257 558

19802	123260 563

19805	123263 560

19808	123266 560

19811	123269 559

19814	123272 560

19817	123275 557

19820	123278 554

19823	123281 556

19826	123284 553

19829	123287 552

19831	123290 553

19834	123293 552

19837	123296 551

19840	123299 550

19843	123302 548

19846	123305 548

19849	123308 547

19852	123311 546

19855	123314 542

19858	123317 538

19861	123320 539

19864	123323 537

19867	123326 542

19870	123329 537

19872	123332 534

19875	123335 530

19878	123338 526

19881	123341 524

19884	123344 524

19887	123347 524

19890	123350 524

19893	123353 520

19896	123356 518

19899	123359 517

19902	123362 517

19905	123365 517

19908	123368 513

19911	123371 514

19913	123374 506

19916	123377 507

19919	123380 508

19922	123383 506

19925	123386 504

19928	123389 504

19931	123392 504

19934	123395 505

19937	123398 501

19940	123401 502

19943	123404 501

19946	123407 504

19949	123410 504

19952	123413 506

19954	123416 506

19957	123419 505

19960	123422 508

19963	123425 508

19966	123428 507

19969	123431 506

19972	123434 507

19975	123437 508

19978	123440 506

19981	123443 508

19984	123446 508

19987	123449 508

19990	123452 509

19993	123455 510

19995	123458 511

19998	123461 510

20001	123464 509

20004	123467 509

20007	123470 509

20010	123473 508

20013	123476 506

20016	123479 508

20019	123482 506

20022	123485 508

20025	123488 507

20028	123491 506

20031	123494 507

20034	123497 505

20036	123500 504

20039	123503 502

20042	123506 505

20045	123509 506

20048	123512 506

20051	123515 510

20054	123518 510

20057	123521 508

20060	123524 509

20063	123527 509

20066	123530 508

20069	123533 509

20072	123536 509

20074	123539 509

20077	123542 511

20080	123545 508

20083	123548 509

20086	123551 510

20089	123554 510

20092	123557 508

20095	123560 508

20098	123563 508

20101	123566 508

20104	123569 508

20107	123572 506

20110	123575 506

20113	123578 506

20115	123581 506

20118	123584 506

20121	123587 508

20124	123590 509

20127	123593 509

20130	123596 510

20133	123599 508

20136	123602 508

20139	123605 506

20142	123608 508

20145	123611 508

20148	123614 512

20151	123617 514

20154	123620 517

20156	123623 516

20159	123626 516

20162	123629 510

20165	123632 506

20168	123635 504

20171	123638 504

20174	123641 504

20177	123644 503

20180	123647 497

20183	123650 496

20186	123653 494

20189	123656 490

20192	123659 487

20195	123662 486

20197	123665 487

20200	123668 486

20203	123671 489

20206	123674 492

20209	123677 486

20212	123680 484

20215	123683 484

20218	123686 484

20221	123689 484

20224	123692 483

20227	123695 483

20230	123698 483

20233	123701 485

20236	123704 486

20238	123707 485

20241	123710 486

20244	123713 486

20247	123716 487

20250	123719 490

20253	123722 496

20256	123725 505

20259	123728 519

20262	123731 537

20265	123734 556

20268	123737 583

20271	123740 616

20274	123743 644

20277	123746 646

20279	123749 615

20282	123752 551

20285	123755 469

20288	123758 386

20291	123761 322

20294	123764 265

20297	123767 222

20300	123770 194

20303	123773 178

20306	123776 187

20309	123779 224

20312	123782 276

20315	123785 329

20317	123788 372

20320	123791 408

20323	123794 437

20326	123797 473

20329	123800 494

20332	123803 517

20335	123806 532

20338	123809 540

20341	123812 544

20344	123815 546

20347	123818 547

20350	123821 547

20353	123824 548

20356	123827 548

20358	123830 549

20361	123833 550

20364	123836 551

20367	123839 552

20370	123842 551

20373	123845 551

20376	123848 553

20379	123851 553

20382	123854 552

20385	123857 552

20388	123860 552

20391	123863 551

20394	123866 553

20396	123869 554

20399	123872 556

20402	123875 555

20405	123878 558

20408	123881 557

20411	123884 556

20414	123887 556

20417	123890 554

20420	123893 556

20423	123896 556

20426	123899 558

20428	123902 557

20432	123905 559

20434	123908 559

20438	123911 558

20440	123914 558

20443	123917 557

20446	123920 564

20449	123923 559

20452	123926 560

20455	123929 560

20458	123932 561

20461	123935 560

20463	123938 558

20467	123941 559

20470	123944 558

20473	123947 556

20476	123950 556

20479	123953 552

20481	123956 555

20484	123959 553

20487	123962 552

20490	123965 551

20493	123968 548

20495	123971 548

20499	123974 548

20501	123977 546

20504	123980 545

20508	123983 542

20511	123986 540

20514	123989 538

20517	123992 539

20519	123995 538

20521	123998 537

20526	124001 536

